-45.242,3.592,76.913,-25.427,-58.087,74.514,51.615,8.9682,-4.3484,-18.478,8.5669,1.8696,35.276,-44.086,26.463,-31.081
-45.242,3.592,76.913,-25.427,-58.087,74.514,51.615,8.9682,-4.3484,-18.478,8.5669,1.8696,35.276,-44.086,26.463,-31.081
-45.467,3.7162,76.784,-25.25,-58.634,74.305,51.378,9.1776,-4.4664,-18.266,8.6055,2.1391,35.691,-43.596,26.623,-30.717
-45.467,3.7162,76.784,-25.25,-58.634,74.305,51.378,9.1776,-4.4664,-18.266,8.6055,2.1391,35.691,-43.596,26.623,-30.717
-45.467,3.7162,76.784,-25.25,-58.634,74.305,51.378,9.1776,-4.4664,-18.266,8.6055,2.1391,35.691,-43.596,26.623,-30.717
-45.577,3.7798,76.718,-25.16,-58.905,74.201,51.258,9.283,-4.5204,-18.157,8.6235,2.2736,35.896,-43.35,26.703,-30.534
-45.686,3.8443,76.652,-25.07,-59.175,74.098,51.138,9.3888,-4.5712,-18.045,8.6406,2.4079,36.098,-43.104,26.782,-30.352
-45.794,3.9098,76.584,-24.98,-59.444,73.995,51.018,9.495,-4.6186,-17.93,8.6568,2.542,36.299,-42.857,26.862,-30.169
-45.794,3.9098,76.584,-24.98,-59.444,73.995,51.018,9.495,-4.6186,-17.93,8.6568,2.542,36.299,-42.857,26.862,-30.169
-45.794,3.9098,76.584,-24.98,-59.444,73.995,51.018,9.495,-4.6186,-17.93,8.6568,2.542,36.299,-42.857,26.862,-30.169
-45.901,3.9762,76.517,-24.889,-59.711,73.893,50.897,9.6017,-4.6628,-17.813,8.6721,2.676,36.497,-42.61,26.941,-29.986
-45.901,3.9762,76.517,-24.889,-59.711,73.893,50.897,9.6017,-4.6628,-17.813,8.6721,2.676,36.497,-42.61,26.941,-29.986
-46.007,4.0435,76.449,-24.797,-59.976,73.792,50.776,9.7088,-4.7036,-17.694,8.6866,2.8097,36.693,-42.362,27.019,-29.803
-46.007,4.0435,76.449,-24.797,-59.976,73.792,50.776,9.7088,-4.7036,-17.694,8.6866,2.8097,36.693,-42.362,27.019,-29.803
-46.112,4.1117,76.38,-24.705,-60.241,73.691,50.654,9.8163,-4.741,-17.572,8.7002,2.9433,36.887,-42.114,27.098,-29.62
-46.112,4.1117,76.38,-24.705,-60.241,73.691,50.654,9.8163,-4.741,-17.572,8.7002,2.9433,36.887,-42.114,27.098,-29.62
-46.215,4.1807,76.31,-24.613,-60.504,73.591,50.532,9.9242,-4.7751,-17.448,8.7129,3.0767,37.079,-41.866,27.176,-29.437
-46.215,4.1807,76.31,-24.613,-60.504,73.591,50.532,9.9242,-4.7751,-17.448,8.7129,3.0767,37.079,-41.866,27.176,-29.437
-46.215,4.1807,76.31,-24.613,-60.504,73.591,50.532,9.9242,-4.7751,-17.448,8.7129,3.0767,37.079,-41.866,27.176,-29.437
-46.317,4.2506,76.24,-24.52,-60.765,73.492,50.409,10.033,-4.8059,-17.322,8.7248,3.2098,37.268,-41.617,27.254,-29.254
-46.317,4.2506,76.24,-24.52,-60.765,73.492,50.409,10.033,-4.8059,-17.322,8.7248,3.2098,37.268,-41.617,27.254,-29.254
-46.317,4.2506,76.24,-24.52,-60.765,73.492,50.409,10.033,-4.8059,-17.322,8.7248,3.2098,37.268,-41.617,27.254,-29.254
-46.518,4.3928,76.098,-24.333,-61.284,73.294,50.162,10.25,-4.8574,-17.062,8.7458,3.4755,37.641,-41.118,27.41,-28.887
-46.518,4.3928,76.098,-24.333,-61.284,73.294,50.162,10.25,-4.8574,-17.062,8.7458,3.4755,37.641,-41.118,27.41,-28.887
-46.518,4.3928,76.098,-24.333,-61.284,73.294,50.162,10.25,-4.8574,-17.062,8.7458,3.4755,37.641,-41.118,27.41,-28.887
-46.617,4.4651,76.026,-24.239,-61.541,73.197,50.038,10.36,-4.8781,-16.928,8.7551,3.6081,37.824,-40.868,27.487,-28.704
-46.617,4.4651,76.026,-24.239,-61.541,73.197,50.038,10.36,-4.8781,-16.928,8.7551,3.6081,37.824,-40.868,27.487,-28.704
-46.715,4.5382,75.953,-24.145,-61.797,73.099,49.914,10.469,-4.8954,-16.792,8.7634,3.7404,38.005,-40.618,27.564,-28.52
-46.715,4.5382,75.953,-24.145,-61.797,73.099,49.914,10.469,-4.8954,-16.792,8.7634,3.7404,38.005,-40.618,27.564,-28.52
-46.812,4.612,75.88,-24.05,-62.051,73.003,49.789,10.58,-4.9093,-16.653,8.7709,3.8725,38.184,-40.367,27.64,-28.337
-46.812,4.612,75.88,-24.05,-62.051,73.003,49.789,10.58,-4.9093,-16.653,8.7709,3.8725,38.184,-40.367,27.64,-28.337
-46.812,4.612,75.88,-24.05,-62.051,73.003,49.789,10.58,-4.9093,-16.653,8.7709,3.8725,38.184,-40.367,27.64,-28.337
-47.002,4.7617,75.731,-23.859,-62.556,72.811,49.538,10.801,-4.927,-16.368,8.7832,4.1361,38.534,-39.865,27.793,-27.97
-47.002,4.7617,75.731,-23.859,-62.556,72.811,49.538,10.801,-4.927,-16.368,8.7832,4.1361,38.534,-39.865,27.793,-27.97
-47.096,4.8377,75.656,-23.763,-62.806,72.717,49.411,10.912,-4.9307,-16.222,8.7881,4.2675,38.706,-39.613,27.868,-27.786
-47.096,4.8377,75.656,-23.763,-62.806,72.717,49.411,10.912,-4.9307,-16.222,8.7881,4.2675,38.706,-39.613,27.868,-27.786
-47.189,4.9142,75.581,-23.666,-63.054,72.623,49.284,11.023,-4.931,-16.074,8.7921,4.3987,38.876,-39.361,27.944,-27.603
-47.189,4.9142,75.581,-23.666,-63.054,72.623,49.284,11.023,-4.931,-16.074,8.7921,4.3987,38.876,-39.361,27.944,-27.603
-47.28,4.9915,75.504,-23.569,-63.301,72.529,49.157,11.135,-4.928,-15.923,8.7952,4.5297,39.044,-39.109,28.019,-27.419
-47.28,4.9915,75.504,-23.569,-63.301,72.529,49.157,11.135,-4.928,-15.923,8.7952,4.5297,39.044,-39.109,28.019,-27.419
-47.371,5.0693,75.427,-23.472,-63.547,72.436,49.029,11.247,-4.9215,-15.769,8.7974,4.6604,39.209,-38.856,28.093,-27.236
-47.371,5.0693,75.427,-23.472,-63.547,72.436,49.029,11.247,-4.9215,-15.769,8.7974,4.6604,39.209,-38.856,28.093,-27.236
-47.371,5.0693,75.427,-23.472,-63.547,72.436,49.029,11.247,-4.9215,-15.769,8.7974,4.6604,39.209,-38.856,28.093,-27.236
-47.461,5.1478,75.35,-23.375,-63.791,72.344,48.901,11.359,-4.9116,-15.613,8.7988,4.791,39.372,-38.603,28.167,-27.052
-47.461,5.1478,75.35,-23.375,-63.791,72.344,48.901,11.359,-4.9116,-15.613,8.7988,4.791,39.372,-38.603,28.167,-27.052
-47.461,5.1478,75.35,-23.375,-63.791,72.344,48.901,11.359,-4.9116,-15.613,8.7988,4.791,39.372,-38.603,28.167,-27.052
-47.637,5.3064,75.193,-23.179,-64.274,72.161,48.643,11.585,-4.8816,-15.294,8.7989,5.0512,39.691,-38.097,28.315,-26.686
-47.724,5.3866,75.114,-23.08,-64.514,72.071,48.514,11.698,-4.8615,-15.131,8.7976,5.181,39.847,-37.843,28.388,-26.502
-47.724,5.3866,75.114,-23.08,-64.514,72.071,48.514,11.698,-4.8615,-15.131,8.7976,5.181,39.847,-37.843,28.388,-26.502
-47.81,5.4673,75.034,-22.981,-64.752,71.981,48.384,11.811,-4.838,-14.965,8.7954,5.3105,40.001,-37.589,28.461,-26.319
-47.81,5.4673,75.034,-22.981,-64.752,71.981,48.384,11.811,-4.838,-14.965,8.7954,5.3105,40.001,-37.589,28.461,-26.319
-47.81,5.4673,75.034,-22.981,-64.752,71.981,48.384,11.811,-4.838,-14.965,8.7954,5.3105,40.001,-37.589,28.461,-26.319
-47.81,5.4673,75.034,-22.981,-64.752,71.981,48.384,11.811,-4.838,-14.965,8.7954,5.3105,40.001,-37.589,28.461,-26.319
-47.895,5.5485,74.953,-22.882,-64.989,71.892,48.253,11.925,-4.811,-14.796,8.7924,5.4398,40.153,-37.335,28.533,-26.136
-47.895,5.5485,74.953,-22.882,-64.989,71.892,48.253,11.925,-4.811,-14.796,8.7924,5.4398,40.153,-37.335,28.533,-26.136
-47.979,5.6302,74.872,-22.783,-65.224,71.803,48.122,12.039,-4.7807,-14.625,8.7885,5.5688,40.302,-37.081,28.606,-25.953
-48.062,5.7124,74.79,-22.683,-65.457,71.715,47.991,12.153,-4.7469,-14.452,8.7836,5.6976,40.449,-36.827,28.677,-25.77
-48.062,5.7124,74.79,-22.683,-65.457,71.715,47.991,12.153,-4.7469,-14.452,8.7836,5.6976,40.449,-36.827,28.677,-25.77
-48.145,5.795,74.708,-22.583,-65.689,71.628,47.859,12.267,-4.7097,-14.276,8.7779,5.826,40.593,-36.572,28.748,-25.588
-48.145,5.795,74.708,-22.583,-65.689,71.628,47.859,12.267,-4.7097,-14.276,8.7779,5.826,40.593,-36.572,28.748,-25.588
-48.226,5.878,74.625,-22.483,-65.92,71.541,47.726,12.381,-4.6691,-14.097,8.7714,5.9543,40.736,-36.317,28.819,-25.405
-48.226,5.878,74.625,-22.483,-65.92,71.541,47.726,12.381,-4.6691,-14.097,8.7714,5.9543,40.736,-36.317,28.819,-25.405
-48.307,5.9615,74.541,-22.383,-66.149,71.455,47.593,12.496,-4.6251,-13.916,8.7639,6.0822,40.876,-36.062,28.89,-25.223
-48.307,5.9615,74.541,-22.383,-66.149,71.455,47.593,12.496,-4.6251,-13.916,8.7639,6.0822,40.876,-36.062,28.89,-25.223
-48.307,5.9615,74.541,-22.383,-66.149,71.455,47.593,12.496,-4.6251,-13.916,8.7639,6.0822,40.876,-36.062,28.89,-25.223
-48.387,6.0454,74.457,-22.282,-66.376,71.369,47.46,12.611,-4.5777,-13.733,8.7555,6.2099,41.013,-35.807,28.96,-25.041
-48.387,6.0454,74.457,-22.282,-66.376,71.369,47.46,12.611,-4.5777,-13.733,8.7555,6.2099,41.013,-35.807,28.96,-25.041
-48.466,6.1296,74.372,-22.181,-66.603,71.284,47.326,12.726,-4.5269,-13.547,8.7463,6.3373,41.149,-35.552,29.029,-24.859
-48.466,6.1296,74.372,-22.181,-66.603,71.284,47.326,12.726,-4.5269,-13.547,8.7463,6.3373,41.149,-35.552,29.029,-24.859
-48.544,6.2142,74.287,-22.08,-66.827,71.2,47.192,12.841,-4.4727,-13.358,8.7362,6.4644,41.282,-35.297,29.098,-24.677
-48.544,6.2142,74.287,-22.08,-66.827,71.2,47.192,12.841,-4.4727,-13.358,8.7362,6.4644,41.282,-35.297,29.098,-24.677
-48.544,6.2142,74.287,-22.08,-66.827,71.2,47.192,12.841,-4.4727,-13.358,8.7362,6.4644,41.282,-35.297,29.098,-24.677
-48.544,6.2142,74.287,-22.08,-66.827,71.2,47.192,12.841,-4.4727,-13.358,8.7362,6.4644,41.282,-35.297,29.098,-24.677
-48.698,6.3845,74.114,-21.877,-67.271,71.033,46.922,13.072,-4.3541,-12.973,8.7132,6.7178,41.541,-34.786,29.235,-24.313
-48.698,6.3845,74.114,-21.877,-67.271,71.033,46.922,13.072,-4.3541,-12.973,8.7132,6.7178,41.541,-34.786,29.235,-24.313
-48.774,6.47,74.027,-21.775,-67.491,70.95,46.786,13.187,-4.2897,-12.777,8.7004,6.844,41.666,-34.53,29.303,-24.132
-48.849,6.5559,73.939,-21.673,-67.71,70.868,46.65,13.303,-4.2219,-12.579,8.6866,6.97,41.79,-34.274,29.37,-23.951
-48.849,6.5559,73.939,-21.673,-67.71,70.868,46.65,13.303,-4.2219,-12.579,8.6866,6.97,41.79,-34.274,29.37,-23.951
-48.924,6.642,73.851,-21.571,-67.927,70.787,46.513,13.419,-4.1508,-12.377,8.672,7.0956,41.911,-34.018,29.436,-23.77
-48.924,6.642,73.851,-21.571,-67.927,70.787,46.513,13.419,-4.1508,-12.377,8.672,7.0956,41.911,-34.018,29.436,-23.77
-48.997,6.7284,73.762,-21.468,-68.142,70.706,46.376,13.535,-4.0763,-12.174,8.6565,7.221,42.03,-33.762,29.503,-23.59
-48.997,6.7284,73.762,-21.468,-68.142,70.706,46.376,13.535,-4.0763,-12.174,8.6565,7.221,42.03,-33.762,29.503,-23.59
-48.997,6.7284,73.762,-21.468,-68.142,70.706,46.376,13.535,-4.0763,-12.174,8.6565,7.221,42.03,-33.762,29.503,-23.59
-49.07,6.8151,73.673,-21.366,-68.356,70.625,46.238,13.651,-3.9984,-11.968,8.6401,7.346,42.146,-33.506,29.568,-23.409
-49.143,6.9019,73.582,-21.263,-68.568,70.546,46.1,13.767,-3.9172,-11.759,8.6227,7.4708,42.26,-33.251,29.633,-23.229
-49.143,6.9019,73.582,-21.263,-68.568,70.546,46.1,13.767,-3.9172,-11.759,8.6227,7.4708,42.26,-33.251,29.633,-23.229
-49.214,6.9889,73.492,-21.16,-68.779,70.466,45.961,13.883,-3.8327,-11.548,8.6045,7.5952,42.372,-32.994,29.698,-23.05
-49.214,6.9889,73.492,-21.16,-68.779,70.466,45.961,13.883,-3.8327,-11.548,8.6045,7.5952,42.372,-32.994,29.698,-23.05
-49.285,7.0762,73.4,-21.057,-68.989,70.388,45.822,13.999,-3.7448,-11.334,8.5853,7.7193,42.481,-32.738,29.762,-22.87
-49.285,7.0762,73.4,-21.057,-68.989,70.388,45.822,13.999,-3.7448,-11.334,8.5853,7.7193,42.481,-32.738,29.762,-22.87
-49.356,7.1635,73.308,-20.954,-69.196,70.31,45.683,14.116,-3.6536,-11.117,8.5652,7.8431,42.587,-32.482,29.826,-22.691
-49.356,7.1635,73.308,-20.954,-69.196,70.31,45.683,14.116,-3.6536,-11.117,8.5652,7.8431,42.587,-32.482,29.826,-22.691
-49.425,7.2511,73.216,-20.851,-69.403,70.232,45.542,14.232,-3.559,-10.899,8.5442,7.9666,42.692,-32.226,29.889,-22.512
-49.425,7.2511,73.216,-20.851,-69.403,70.232,45.542,14.232,-3.559,-10.899,8.5442,7.9666,42.692,-32.226,29.889,-22.512
-49.494,7.3387,73.122,-20.748,-69.607,70.155,45.402,14.348,-3.4612,-10.677,8.5223,8.0897,42.794,-31.97,29.951,-22.333
-49.494,7.3387,73.122,-20.748,-69.607,70.155,45.402,14.348,-3.4612,-10.677,8.5223,8.0897,42.794,-31.97,29.951,-22.333
-49.563,7.4265,73.029,-20.644,-69.811,70.079,45.261,14.465,-3.36,-10.453,8.4994,8.2125,42.893,-31.714,30.013,-22.155
-49.563,7.4265,73.029,-20.644,-69.811,70.079,45.261,14.465,-3.36,-10.453,8.4994,8.2125,42.893,-31.714,30.013,-22.155
-49.631,7.5144,72.934,-20.541,-70.012,70.003,45.119,14.581,-3.2556,-10.227,8.4757,8.335,42.99,-31.458,30.074,-21.977
-49.631,7.5144,72.934,-20.541,-70.012,70.003,45.119,14.581,-3.2556,-10.227,8.4757,8.335,42.99,-31.458,30.074,-21.977
-49.698,7.6023,72.839,-20.437,-70.213,69.928,44.977,14.698,-3.1479,-9.9983,8.451,8.4572,43.085,-31.202,30.135,-21.8
-49.698,7.6023,72.839,-20.437,-70.213,69.928,44.977,14.698,-3.1479,-9.9983,8.451,8.4572,43.085,-31.202,30.135,-21.8
-49.765,7.6903,72.744,-20.333,-70.411,69.853,44.834,14.814,-3.0369,-9.767,8.4254,8.579,43.177,-30.946,30.195,-21.622
-49.765,7.6903,72.744,-20.333,-70.411,69.853,44.834,14.814,-3.0369,-9.767,8.4254,8.579,43.177,-30.946,30.195,-21.622
-49.831,7.7784,72.648,-20.229,-70.609,69.778,44.691,14.931,-2.9227,-9.5331,8.3988,8.7005,43.267,-30.691,30.254,-21.446
-49.831,7.7784,72.648,-20.229,-70.609,69.778,44.691,14.931,-2.9227,-9.5331,8.3988,8.7005,43.267,-30.691,30.254,-21.446
-49.896,7.8665,72.551,-20.125,-70.804,69.705,44.547,15.047,-2.8052,-9.2968,8.3713,8.8216,43.354,-30.435,30.313,-21.269
-49.896,7.8665,72.551,-20.125,-70.804,69.705,44.547,15.047,-2.8052,-9.2968,8.3713,8.8216,43.354,-30.435,30.313,-21.269
-49.961,7.9546,72.453,-20.022,-70.998,69.631,44.403,15.163,-2.6846,-9.058,8.3429,8.9423,43.439,-30.179,30.371,-21.093
-49.961,7.9546,72.453,-20.022,-70.998,69.631,44.403,15.163,-2.6846,-9.058,8.3429,8.9423,43.439,-30.179,30.371,-21.093
-49.961,7.9546,72.453,-20.022,-70.998,69.631,44.403,15.163,-2.6846,-9.058,8.3429,8.9423,43.439,-30.179,30.371,-21.093
-50.026,8.0427,72.355,-19.918,-71.191,69.559,44.258,15.28,-2.5607,-8.8166,8.3135,9.0628,43.521,-29.923,30.428,-20.917
-50.026,8.0427,72.355,-19.918,-71.191,69.559,44.258,15.28,-2.5607,-8.8166,8.3135,9.0628,43.521,-29.923,30.428,-20.917
-50.153,8.2188,72.158,-19.71,-71.572,69.415,43.967,15.512,-2.3033,-8.3266,8.2519,9.3025,43.679,-29.412,30.541,-20.567
-50.153,8.2188,72.158,-19.71,-71.572,69.415,43.967,15.512,-2.3033,-8.3266,8.2519,9.3025,43.679,-29.412,30.541,-20.567
-50.153,8.2188,72.158,-19.71,-71.572,69.415,43.967,15.512,-2.3033,-8.3266,8.2519,9.3025,43.679,-29.412,30.541,-20.567
-50.217,8.3068,72.058,-19.606,-71.76,69.343,43.821,15.629,-2.1699,-8.0779,8.2197,9.4219,43.754,-29.157,30.597,-20.392
-50.217,8.3068,72.058,-19.606,-71.76,69.343,43.821,15.629,-2.1699,-8.0779,8.2197,9.4219,43.754,-29.157,30.597,-20.392
-50.279,8.3947,71.957,-19.502,-71.947,69.272,43.674,15.745,-2.0333,-7.8267,8.1866,9.5408,43.826,-28.902,30.652,-20.218
-50.279,8.3947,71.957,-19.502,-71.947,69.272,43.674,15.745,-2.0333,-7.8267,8.1866,9.5408,43.826,-28.902,30.652,-20.218
-50.279,8.3947,71.957,-19.502,-71.947,69.272,43.674,15.745,-2.0333,-7.8267,8.1866,9.5408,43.826,-28.902,30.652,-20.218
-50.341,8.4825,71.856,-19.398,-72.132,69.202,43.527,15.861,-1.8935,-7.573,8.1524,9.6594,43.896,-28.647,30.706,-20.045
-50.341,8.4825,71.856,-19.398,-72.132,69.202,43.527,15.861,-1.8935,-7.573,8.1524,9.6594,43.896,-28.647,30.706,-20.045
-50.403,8.5703,71.755,-19.294,-72.316,69.132,43.379,15.977,-1.7507,-7.3169,8.1173,9.7777,43.964,-28.392,30.759,-19.871
-50.403,8.5703,71.755,-19.294,-72.316,69.132,43.379,15.977,-1.7507,-7.3169,8.1173,9.7777,43.964,-28.392,30.759,-19.871
-50.464,8.6579,71.653,-19.19,-72.498,69.063,43.231,16.092,-1.6047,-7.0584,8.0813,9.8955,44.029,-28.137,30.812,-19.698
-50.525,8.7454,71.55,-19.086,-72.679,68.994,43.082,16.208,-1.4557,-6.7974,8.0443,10.013,44.091,-27.882,30.864,-19.526
-50.525,8.7454,71.55,-19.086,-72.679,68.994,43.082,16.208,-1.4557,-6.7974,8.0443,10.013,44.091,-27.882,30.864,-19.526
-50.586,8.8328,71.446,-18.982,-72.858,68.926,42.932,16.324,-1.3036,-6.534,8.0063,10.13,44.151,-27.628,30.915,-19.354
-50.586,8.8328,71.446,-18.982,-72.858,68.926,42.932,16.324,-1.3036,-6.534,8.0063,10.13,44.151,-27.628,30.915,-19.354
-50.586,8.8328,71.446,-18.982,-72.858,68.926,42.932,16.324,-1.3036,-6.534,8.0063,10.13,44.151,-27.628,30.915,-19.354
-50.646,8.92,71.342,-18.878,-73.036,68.857,42.782,16.439,-1.1485,-6.2681,7.9673,10.247,44.209,-27.374,30.965,-19.183
-50.705,9.007,71.237,-18.774,-73.212,68.79,42.632,16.555,-0.99029,-5.9999,7.9274,10.363,44.264,-27.12,31.015,-19.012
-50.705,9.007,71.237,-18.774,-73.212,68.79,42.632,16.555,-0.99029,-5.9999,7.9274,10.363,44.264,-27.12,31.015,-19.012
-50.765,9.0938,71.132,-18.67,-73.387,68.723,42.481,16.67,-0.82911,-5.7292,7.8865,10.479,44.317,-26.866,31.064,-18.842
-50.765,9.0938,71.132,-18.67,-73.387,68.723,42.481,16.67,-0.82911,-5.7292,7.8865,10.479,44.317,-26.866,31.064,-18.842
-50.824,9.1805,71.026,-18.567,-73.561,68.656,42.329,16.785,-0.66493,-5.4562,7.8446,10.594,44.367,-26.612,31.112,-18.672
-50.824,9.1805,71.026,-18.567,-73.561,68.656,42.329,16.785,-0.66493,-5.4562,7.8446,10.594,44.367,-26.612,31.112,-18.672
-50.824,9.1805,71.026,-18.567,-73.561,68.656,42.329,16.785,-0.66493,-5.4562,7.8446,10.594,44.367,-26.612,31.112,-18.672
-50.882,9.2669,70.92,-18.463,-73.733,68.59,42.177,16.9,-0.49779,-5.1807,7.8017,10.71,44.414,-26.358,31.16,-18.502
-50.882,9.2669,70.92,-18.463,-73.733,68.59,42.177,16.9,-0.49779,-5.1807,7.8017,10.71,44.414,-26.358,31.16,-18.502
-50.882,9.2669,70.92,-18.463,-73.733,68.59,42.177,16.9,-0.49779,-5.1807,7.8017,10.71,44.414,-26.358,31.16,-18.502
-50.999,9.439,70.705,-18.256,-74.073,68.458,41.871,17.129,-0.15467,-4.6227,7.7129,10.939,44.502,-25.852,31.252,-18.165
-50.999,9.439,70.705,-18.256,-74.073,68.458,41.871,17.129,-0.15467,-4.6227,7.7129,10.939,44.502,-25.852,31.252,-18.165
-51.056,9.5247,70.597,-18.153,-74.24,68.393,41.718,17.243,0.021252,-4.3402,7.667,11.052,44.542,-25.599,31.297,-17.997
-51.056,9.5247,70.597,-18.153,-74.24,68.393,41.718,17.243,0.021252,-4.3402,7.667,11.052,44.542,-25.599,31.297,-17.997
-51.114,9.6101,70.488,-18.05,-74.406,68.328,41.563,17.357,0.20006,-4.0553,7.6201,11.166,44.579,-25.347,31.341,-17.83
-51.114,9.6101,70.488,-18.05,-74.406,68.328,41.563,17.357,0.20006,-4.0553,7.6201,11.166,44.579,-25.347,31.341,-17.83
-51.171,9.6952,70.378,-17.947,-74.571,68.264,41.408,17.471,0.38173,-3.768,7.5722,11.279,44.614,-25.094,31.384,-17.663
-51.171,9.6952,70.378,-17.947,-74.571,68.264,41.408,17.471,0.38173,-3.768,7.5722,11.279,44.614,-25.094,31.384,-17.663
-51.228,9.7801,70.268,-17.844,-74.735,68.2,41.253,17.585,0.56624,-3.4784,7.5233,11.391,44.647,-24.842,31.427,-17.497
-51.228,9.7801,70.268,-17.844,-74.735,68.2,41.253,17.585,0.56624,-3.4784,7.5233,11.391,44.647,-24.842,31.427,-17.497
-51.284,9.8646,70.157,-17.741,-74.897,68.136,41.097,17.698,0.75357,-3.1865,7.4734,11.504,44.677,-24.591,31.468,-17.331
-51.284,9.8646,70.157,-17.741,-74.897,68.136,41.097,17.698,0.75357,-3.1865,7.4734,11.504,44.677,-24.591,31.468,-17.331
-51.284,9.8646,70.157,-17.741,-74.897,68.136,41.097,17.698,0.75357,-3.1865,7.4734,11.504,44.677,-24.591,31.468,-17.331
-51.341,9.9488,70.045,-17.638,-75.057,68.073,40.94,17.811,0.94368,-2.8923,7.4225,11.615,44.704,-24.339,31.509,-17.166
-51.397,10.033,69.933,-17.536,-75.216,68.01,40.783,17.924,1.1366,-2.5958,7.3705,11.727,44.729,-24.088,31.549,-17.001
-51.397,10.033,69.933,-17.536,-75.216,68.01,40.783,17.924,1.1366,-2.5958,7.3705,11.727,44.729,-24.088,31.549,-17.001
-51.453,10.116,69.821,-17.433,-75.374,67.948,40.625,18.037,1.3322,-2.2971,7.3175,11.838,44.751,-23.837,31.588,-16.837
-51.453,10.116,69.821,-17.433,-75.374,67.948,40.625,18.037,1.3322,-2.2971,7.3175,11.838,44.751,-23.837,31.588,-16.837
-51.509,10.199,69.707,-17.331,-75.53,67.886,40.467,18.149,1.5305,-1.996,7.2635,11.948,44.771,-23.586,31.626,-16.674
-51.509,10.199,69.707,-17.331,-75.53,67.886,40.467,18.149,1.5305,-1.996,7.2635,11.948,44.771,-23.586,31.626,-16.674
-51.509,10.199,69.707,-17.331,-75.53,67.886,40.467,18.149,1.5305,-1.996,7.2635,11.948,44.771,-23.586,31.626,-16.674
-51.564,10.282,69.593,-17.229,-75.685,67.824,40.308,18.261,1.7316,-1.6927,7.2084,12.058,44.789,-23.336,31.663,-16.511
-51.564,10.282,69.593,-17.229,-75.685,67.824,40.308,18.261,1.7316,-1.6927,7.2084,12.058,44.789,-23.336,31.663,-16.511
-51.619,10.364,69.479,-17.127,-75.839,67.762,40.149,18.373,1.9353,-1.3872,7.1523,12.168,44.803,-23.086,31.699,-16.349
-51.675,10.446,69.364,-17.026,-75.991,67.701,39.989,18.485,2.1416,-1.0794,7.0952,12.277,44.815,-22.836,31.734,-16.187
-51.675,10.446,69.364,-17.026,-75.991,67.701,39.989,18.485,2.1416,-1.0794,7.0952,12.277,44.815,-22.836,31.734,-16.187
-51.73,10.528,69.248,-16.925,-76.142,67.64,39.828,18.596,2.3506,-0.76938,7.037,12.385,44.825,-22.587,31.768,-16.026
-51.73,10.528,69.248,-16.925,-76.142,67.64,39.828,18.596,2.3506,-0.76938,7.037,12.385,44.825,-22.587,31.768,-16.026
-51.784,10.609,69.131,-16.823,-76.292,67.579,39.667,18.707,2.5621,-0.45717,6.9777,12.493,44.832,-22.338,31.802,-15.866
-51.784,10.609,69.131,-16.823,-76.292,67.579,39.667,18.707,2.5621,-0.45717,6.9777,12.493,44.832,-22.338,31.802,-15.866
-51.839,10.69,69.014,-16.722,-76.44,67.519,39.505,18.818,2.7762,-0.14278,6.9174,12.601,44.837,-22.089,31.834,-15.706
-51.839,10.69,69.014,-16.722,-76.44,67.519,39.505,18.818,2.7762,-0.14278,6.9174,12.601,44.837,-22.089,31.834,-15.706
-51.839,10.69,69.014,-16.722,-76.44,67.519,39.505,18.818,2.7762,-0.14278,6.9174,12.601,44.837,-22.089,31.834,-15.706
-51.894,10.77,68.896,-16.622,-76.587,67.459,39.343,18.928,2.9928,0.17379,6.856,12.708,44.839,-21.841,31.865,-15.547
-51.948,10.85,68.778,-16.521,-76.732,67.399,39.18,19.038,3.2119,0.49251,6.7936,12.815,44.838,-21.592,31.896,-15.389
-51.948,10.85,68.778,-16.521,-76.732,67.399,39.18,19.038,3.2119,0.49251,6.7936,12.815,44.838,-21.592,31.896,-15.389
-52.003,10.929,68.659,-16.421,-76.876,67.339,39.016,19.147,3.4335,0.81338,6.7301,12.921,44.835,-21.345,31.925,-15.231
-52.057,11.008,68.539,-16.321,-77.019,67.28,38.852,19.257,3.6576,1.1364,6.6655,13.027,44.83,-21.098,31.953,-15.074
-52.057,11.008,68.539,-16.321,-77.019,67.28,38.852,19.257,3.6576,1.1364,6.6655,13.027,44.83,-21.098,31.953,-15.074
-52.057,11.008,68.539,-16.321,-77.019,67.28,38.852,19.257,3.6576,1.1364,6.6655,13.027,44.83,-21.098,31.953,-15.074
-52.057,11.008,68.539,-16.321,-77.019,67.28,38.852,19.257,3.6576,1.1364,6.6655,13.027,44.83,-21.098,31.953,-15.074
-52.111,11.086,68.419,-16.222,-77.161,67.221,38.687,19.365,3.884,1.4615,6.5999,13.132,44.822,-20.851,31.981,-14.917
-52.111,11.086,68.419,-16.222,-77.161,67.221,38.687,19.365,3.884,1.4615,6.5999,13.132,44.822,-20.851,31.981,-14.917
-52.165,11.164,68.298,-16.122,-77.301,67.162,38.522,19.474,4.1129,1.7887,6.5331,13.237,44.811,-20.604,32.007,-14.761
-52.219,11.241,68.177,-16.023,-77.44,67.104,38.356,19.582,4.3441,2.118,6.4653,13.342,44.798,-20.358,32.032,-14.606
-52.219,11.241,68.177,-16.023,-77.44,67.104,38.356,19.582,4.3441,2.118,6.4653,13.342,44.798,-20.358,32.032,-14.606
-52.273,11.318,68.054,-15.924,-77.577,67.045,38.189,19.69,4.5776,2.4493,6.3964,13.445,44.782,-20.112,32.056,-14.451
-52.273,11.318,68.054,-15.924,-77.577,67.045,38.189,19.69,4.5776,2.4493,6.3964,13.445,44.782,-20.112,32.056,-14.451
-52.273,11.318,68.054,-15.924,-77.577,67.045,38.189,19.69,4.5776,2.4493,6.3964,13.445,44.782,-20.112,32.056,-14.451
-52.327,11.394,67.932,-15.826,-77.714,66.987,38.022,19.797,4.8134,2.7827,6.3264,13.549,44.763,-19.867,32.079,-14.298
-52.381,11.47,67.808,-15.727,-77.849,66.929,37.854,19.904,5.0515,3.1181,6.2552,13.652,44.742,-19.622,32.102,-14.144
-52.381,11.47,67.808,-15.727,-77.849,66.929,37.854,19.904,5.0515,3.1181,6.2552,13.652,44.742,-19.622,32.102,-14.144
-52.381,11.47,67.808,-15.727,-77.849,66.929,37.854,19.904,5.0515,3.1181,6.2552,13.652,44.742,-19.622,32.102,-14.144
-52.435,11.545,67.684,-15.629,-77.982,66.871,37.686,20.011,5.2918,3.4556,6.183,13.754,44.719,-19.378,32.122,-13.992
-52.489,11.619,67.559,-15.532,-78.115,66.814,37.517,20.117,5.5343,3.795,6.1097,13.856,44.693,-19.134,32.142,-13.84
-52.489,11.619,67.559,-15.532,-78.115,66.814,37.517,20.117,5.5343,3.795,6.1097,13.856,44.693,-19.134,32.142,-13.84
-52.543,11.693,67.434,-15.435,-78.246,66.756,37.347,20.222,5.779,4.1364,6.0352,13.957,44.664,-18.89,32.161,-13.689
-52.543,11.693,67.434,-15.435,-78.246,66.756,37.347,20.222,5.779,4.1364,6.0352,13.957,44.664,-18.89,32.161,-13.689
-52.597,11.767,67.308,-15.338,-78.376,66.699,37.177,20.328,6.0258,4.4797,5.9597,14.058,44.633,-18.647,32.179,-13.539
-52.597,11.767,67.308,-15.338,-78.376,66.699,37.177,20.328,6.0258,4.4797,5.9597,14.058,44.633,-18.647,32.179,-13.539
-52.651,11.839,67.181,-15.241,-78.505,66.642,37.006,20.432,6.2747,4.825,5.883,14.158,44.599,-18.404,32.195,-13.389
-52.651,11.839,67.181,-15.241,-78.505,66.642,37.006,20.432,6.2747,4.825,5.883,14.158,44.599,-18.404,32.195,-13.389
-52.651,11.839,67.181,-15.241,-78.505,66.642,37.006,20.432,6.2747,4.825,5.883,14.158,44.599,-18.404,32.195,-13.389
-52.705,11.911,67.054,-15.145,-78.632,66.585,36.835,20.537,6.5256,5.1721,5.8052,14.258,44.563,-18.162,32.211,-13.24
-52.705,11.911,67.054,-15.145,-78.632,66.585,36.835,20.537,6.5256,5.1721,5.8052,14.258,44.563,-18.162,32.211,-13.24
-52.705,11.911,67.054,-15.145,-78.632,66.585,36.835,20.537,6.5256,5.1721,5.8052,14.258,44.563,-18.162,32.211,-13.24
-52.813,12.054,66.797,-14.953,-78.884,66.472,36.49,20.744,7.0337,5.8721,5.6462,14.456,44.483,-17.678,32.238,-12.944
-52.813,12.054,66.797,-14.953,-78.884,66.472,36.49,20.744,7.0337,5.8721,5.6462,14.456,44.483,-17.678,32.238,-12.944
-52.867,12.124,66.667,-14.858,-79.008,66.416,36.316,20.847,7.2906,6.2249,5.5649,14.554,44.439,-17.437,32.25,-12.798
-52.867,12.124,66.667,-14.858,-79.008,66.416,36.316,20.847,7.2906,6.2249,5.5649,14.554,44.439,-17.437,32.25,-12.798
-52.867,12.124,66.667,-14.858,-79.008,66.416,36.316,20.847,7.2906,6.2249,5.5649,14.554,44.439,-17.437,32.25,-12.798
-52.921,12.194,66.538,-14.763,-79.13,66.359,36.142,20.949,7.5495,6.5795,5.4826,14.651,44.393,-17.197,32.261,-12.652
-52.976,12.263,66.407,-14.669,-79.252,66.303,35.968,21.051,7.8103,6.936,5.3991,14.749,44.344,-16.957,32.27,-12.506
-52.976,12.263,66.407,-14.669,-79.252,66.303,35.968,21.051,7.8103,6.936,5.3991,14.749,44.344,-16.957,32.27,-12.506
-53.03,12.331,66.276,-14.575,-79.372,66.247,35.792,21.153,8.073,7.2942,5.3144,14.845,44.292,-16.718,32.279,-12.362
-53.03,12.331,66.276,-14.575,-79.372,66.247,35.792,21.153,8.073,7.2942,5.3144,14.845,44.292,-16.718,32.279,-12.362
-53.03,12.331,66.276,-14.575,-79.372,66.247,35.792,21.153,8.073,7.2942,5.3144,14.845,44.292,-16.718,32.279,-12.362
-53.085,12.399,66.144,-14.481,-79.491,66.191,35.616,21.254,8.3375,7.6541,5.2286,14.941,44.238,-16.479,32.286,-12.218
-53.085,12.399,66.144,-14.481,-79.491,66.191,35.616,21.254,8.3375,7.6541,5.2286,14.941,44.238,-16.479,32.286,-12.218
-53.085,12.399,66.144,-14.481,-79.491,66.191,35.616,21.254,8.3375,7.6541,5.2286,14.941,44.238,-16.479,32.286,-12.218
-53.194,12.532,65.878,-14.295,-79.726,66.079,35.262,21.454,8.8718,8.3793,5.0535,15.131,44.122,-16.002,32.296,-11.933
-53.194,12.532,65.878,-14.295,-79.726,66.079,35.262,21.454,8.8718,8.3793,5.0535,15.131,44.122,-16.002,32.296,-11.933
-53.194,12.532,65.878,-14.295,-79.726,66.079,35.262,21.454,8.8718,8.3793,5.0535,15.131,44.122,-16.002,32.296,-11.933
-53.249,12.597,65.744,-14.203,-79.842,66.023,35.084,21.554,9.1416,8.7444,4.9642,15.226,44.06,-15.764,32.3,-11.791
-53.304,12.662,65.609,-14.111,-79.956,65.968,34.906,21.653,9.413,9.1112,4.8737,15.319,43.996,-15.527,32.302,-11.65
-53.304,12.662,65.609,-14.111,-79.956,65.968,34.906,21.653,9.413,9.1112,4.8737,15.319,43.996,-15.527,32.302,-11.65
-53.359,12.726,65.474,-14.02,-80.07,65.912,34.727,21.751,9.6861,9.4796,4.782,15.412,43.929,-15.291,32.303,-11.51
-53.359,12.726,65.474,-14.02,-80.07,65.912,34.727,21.751,9.6861,9.4796,4.782,15.412,43.929,-15.291,32.303,-11.51
-53.414,12.79,65.338,-13.929,-80.182,65.856,34.547,21.849,9.9608,9.8496,4.6892,15.505,43.86,-15.055,32.303,-11.371
-53.414,12.79,65.338,-13.929,-80.182,65.856,34.547,21.849,9.9608,9.8496,4.6892,15.505,43.86,-15.055,32.303,-11.371
-53.414,12.79,65.338,-13.929,-80.182,65.856,34.547,21.849,9.9608,9.8496,4.6892,15.505,43.86,-15.055,32.303,-11.371
-53.469,12.852,65.201,-13.838,-80.293,65.801,34.366,21.946,10.237,10.221,4.5951,15.597,43.788,-14.82,32.301,-11.232
-53.525,12.914,65.064,-13.748,-80.403,65.745,34.185,22.043,10.515,10.594,4.4999,15.689,43.713,-14.585,32.299,-11.095
-53.525,12.914,65.064,-13.748,-80.403,65.745,34.185,22.043,10.515,10.594,4.4999,15.689,43.713,-14.585,32.299,-11.095
-53.581,12.975,64.926,-13.658,-80.513,65.69,34.003,22.139,10.794,10.969,4.4035,15.779,43.636,-14.35,32.294,-10.958
-53.581,12.975,64.926,-13.658,-80.513,65.69,34.003,22.139,10.794,10.969,4.4035,15.779,43.636,-14.35,32.294,-10.958
-53.581,12.975,64.926,-13.658,-80.513,65.69,34.003,22.139,10.794,10.969,4.4035,15.779,43.636,-14.35,32.294,-10.958
-53.637,13.036,64.788,-13.569,-80.621,65.634,33.821,22.235,11.075,11.346,4.3059,15.87,43.557,-14.116,32.289,-10.822
-53.637,13.036,64.788,-13.569,-80.621,65.634,33.821,22.235,11.075,11.346,4.3059,15.87,43.557,-14.116,32.289,-10.822
-53.637,13.036,64.788,-13.569,-80.621,65.634,33.821,22.235,11.075,11.346,4.3059,15.87,43.557,-14.116,32.289,-10.822
-53.749,13.154,64.508,-13.392,-80.833,65.523,33.454,22.424,11.641,12.103,4.1071,16.048,43.39,-13.65,32.274,-10.552
-53.749,13.154,64.508,-13.392,-80.833,65.523,33.454,22.424,11.641,12.103,4.1071,16.048,43.39,-13.65,32.274,-10.552
-53.749,13.154,64.508,-13.392,-80.833,65.523,33.454,22.424,11.641,12.103,4.1071,16.048,43.39,-13.65,32.274,-10.552
-53.806,13.212,64.368,-13.304,-80.938,65.467,33.269,22.518,11.926,12.483,4.0059,16.137,43.303,-13.418,32.265,-10.418
-53.863,13.27,64.227,-13.217,-81.042,65.412,33.084,22.611,12.212,12.865,3.9034,16.225,43.213,-13.186,32.254,-10.285
-53.863,13.27,64.227,-13.217,-81.042,65.412,33.084,22.611,12.212,12.865,3.9034,16.225,43.213,-13.186,32.254,-10.285
-53.92,13.326,64.085,-13.131,-81.145,65.356,32.898,22.704,12.499,13.249,3.7998,16.312,43.121,-12.955,32.242,-10.153
-53.92,13.326,64.085,-13.131,-81.145,65.356,32.898,22.704,12.499,13.249,3.7998,16.312,43.121,-12.955,32.242,-10.153
-53.977,13.382,63.942,-13.044,-81.246,65.301,32.712,22.796,12.788,13.634,3.6949,16.399,43.026,-12.725,32.229,-10.021
-53.977,13.382,63.942,-13.044,-81.246,65.301,32.712,22.796,12.788,13.634,3.6949,16.399,43.026,-12.725,32.229,-10.021
-54.034,13.437,63.799,-12.959,-81.347,65.245,32.524,22.887,13.078,14.02,3.5888,16.485,42.929,-12.495,32.214,-9.8909
-54.034,13.437,63.799,-12.959,-81.347,65.245,32.524,22.887,13.078,14.02,3.5888,16.485,42.929,-12.495,32.214,-9.8909
-54.092,13.491,63.655,-12.874,-81.447,65.189,32.336,22.978,13.369,14.407,3.4815,16.57,42.829,-12.265,32.198,-9.7611
-54.092,13.491,63.655,-12.874,-81.447,65.189,32.336,22.978,13.369,14.407,3.4815,16.57,42.829,-12.265,32.198,-9.7611
-54.15,13.544,63.51,-12.789,-81.546,65.133,32.148,23.068,13.661,14.796,3.3729,16.655,42.727,-12.036,32.18,-9.6322
-54.15,13.544,63.51,-12.789,-81.546,65.133,32.148,23.068,13.661,14.796,3.3729,16.655,42.727,-12.036,32.18,-9.6322
-54.15,13.544,63.51,-12.789,-81.546,65.133,32.148,23.068,13.661,14.796,3.3729,16.655,42.727,-12.036,32.18,-9.6322
-54.208,13.597,63.365,-12.705,-81.643,65.077,31.959,23.157,13.955,15.186,3.2632,16.739,42.622,-11.808,32.161,-9.504
-54.208,13.597,63.365,-12.705,-81.643,65.077,31.959,23.157,13.955,15.186,3.2632,16.739,42.622,-11.808,32.161,-9.504
-54.267,13.649,63.219,-12.621,-81.74,65.021,31.769,23.246,14.249,15.577,3.1521,16.823,42.515,-11.581,32.141,-9.3767
-54.267,13.649,63.219,-12.621,-81.74,65.021,31.769,23.246,14.249,15.577,3.1521,16.823,42.515,-11.581,32.141,-9.3767
-54.326,13.7,63.072,-12.538,-81.836,64.965,31.578,23.334,14.544,15.969,3.0399,16.906,42.405,-11.353,32.119,-9.2502
-54.326,13.7,63.072,-12.538,-81.836,64.965,31.578,23.334,14.544,15.969,3.0399,16.906,42.405,-11.353,32.119,-9.2502
-54.385,13.75,62.925,-12.456,-81.931,64.909,31.387,23.422,14.84,16.363,2.9264,16.988,42.293,-11.127,32.096,-9.1245
-54.444,13.799,62.777,-12.374,-82.025,64.853,31.195,23.509,15.138,16.757,2.8116,17.07,42.178,-10.901,32.072,-8.9996
-54.444,13.799,62.777,-12.374,-82.025,64.853,31.195,23.509,15.138,16.757,2.8116,17.07,42.178,-10.901,32.072,-8.9996
-54.504,13.847,62.628,-12.293,-82.118,64.796,31.002,23.595,15.436,17.153,2.6956,17.151,42.061,-10.676,32.046,-8.8755
-54.504,13.847,62.628,-12.293,-82.118,64.796,31.002,23.595,15.436,17.153,2.6956,17.151,42.061,-10.676,32.046,-8.8755
-54.564,13.895,62.479,-12.212,-82.21,64.739,30.809,23.681,15.734,17.55,2.5784,17.231,41.942,-10.451,32.019,-8.7523
-54.564,13.895,62.479,-12.212,-82.21,64.739,30.809,23.681,15.734,17.55,2.5784,17.231,41.942,-10.451,32.019,-8.7523
-54.624,13.941,62.329,-12.132,-82.302,64.683,30.615,23.766,16.034,17.947,2.4599,17.311,41.819,-10.227,31.99,-8.6299
-54.624,13.941,62.329,-12.132,-82.302,64.683,30.615,23.766,16.034,17.947,2.4599,17.311,41.819,-10.227,31.99,-8.6299
-54.624,13.941,62.329,-12.132,-82.302,64.683,30.615,23.766,16.034,17.947,2.4599,17.311,41.819,-10.227,31.99,-8.6299
-54.685,13.987,62.178,-12.053,-82.392,64.626,30.42,23.85,16.335,18.346,2.3401,17.39,41.695,-10.004,31.96,-8.5083
-54.746,14.032,62.027,-11.974,-82.482,64.569,30.224,23.933,16.636,18.746,2.2191,17.468,41.568,-9.7807,31.928,-8.3875
-54.807,14.076,61.875,-11.896,-82.57,64.512,30.028,24.016,16.937,19.146,2.0968,17.546,41.438,-9.5585,31.895,-8.2676
-54.807,14.076,61.875,-11.896,-82.57,64.512,30.028,24.016,16.937,19.146,2.0968,17.546,41.438,-9.5585,31.895,-8.2676
-54.807,14.076,61.875,-11.896,-82.57,64.512,30.028,24.016,16.937,19.146,2.0968,17.546,41.438,-9.5585,31.895,-8.2676
-54.869,14.119,61.722,-11.818,-82.658,64.454,29.831,24.098,17.24,19.548,1.9733,17.623,41.306,-9.3368,31.86,-8.1485
-54.869,14.119,61.722,-11.818,-82.658,64.454,29.831,24.098,17.24,19.548,1.9733,17.623,41.306,-9.3368,31.86,-8.1485
-54.869,14.119,61.722,-11.818,-82.658,64.454,29.831,24.098,17.24,19.548,1.9733,17.623,41.306,-9.3368,31.86,-8.1485
-54.931,14.161,61.569,-11.741,-82.745,64.397,29.634,24.18,17.543,19.95,1.8485,17.7,41.171,-9.1158,31.824,-8.0302
-54.931,14.161,61.569,-11.741,-82.745,64.397,29.634,24.18,17.543,19.95,1.8485,17.7,41.171,-9.1158,31.824,-8.0302
-54.931,14.161,61.569,-11.741,-82.745,64.397,29.634,24.18,17.543,19.95,1.8485,17.7,41.171,-9.1158,31.824,-8.0302
-55.056,14.243,61.26,-11.589,-82.916,64.281,29.237,24.341,18.15,20.758,1.595,17.851,40.895,-8.6757,31.747,-7.7962
-55.056,14.243,61.26,-11.589,-82.916,64.281,29.237,24.341,18.15,20.758,1.595,17.851,40.895,-8.6757,31.747,-7.7962
-55.119,14.283,61.105,-11.514,-83.001,64.223,29.037,24.42,18.455,21.162,1.4664,17.925,40.753,-8.4566,31.707,-7.6804
-55.119,14.283,61.105,-11.514,-83.001,64.223,29.037,24.42,18.455,21.162,1.4664,17.925,40.753,-8.4566,31.707,-7.6804
-55.119,14.283,61.105,-11.514,-83.001,64.223,29.037,24.42,18.455,21.162,1.4664,17.925,40.753,-8.4566,31.707,-7.6804
-55.183,14.321,60.949,-11.439,-83.084,64.164,28.837,24.499,18.76,21.568,1.3365,17.999,40.609,-8.2381,31.665,-7.5655
-55.183,14.321,60.949,-11.439,-83.084,64.164,28.837,24.499,18.76,21.568,1.3365,17.999,40.609,-8.2381,31.665,-7.5655
-55.183,14.321,60.949,-11.439,-83.084,64.164,28.837,24.499,18.76,21.568,1.3365,17.999,40.609,-8.2381,31.665,-7.5655
-55.311,14.396,60.635,-11.292,-83.249,64.047,28.434,24.654,19.371,22.381,1.0728,18.144,40.313,-7.803,31.576,-7.3381
-55.311,14.396,60.635,-11.292,-83.249,64.047,28.434,24.654,19.371,22.381,1.0728,18.144,40.313,-7.803,31.576,-7.3381
-55.376,14.432,60.477,-11.22,-83.331,63.988,28.231,24.73,19.677,22.788,0.93906,18.216,40.161,-7.5864,31.529,-7.2257
-55.376,14.432,60.477,-11.22,-83.331,63.988,28.231,24.73,19.677,22.788,0.93906,18.216,40.161,-7.5864,31.529,-7.2257
-55.441,14.467,60.318,-11.148,-83.411,63.928,28.028,24.806,19.983,23.196,0.80402,18.287,40.007,-7.3704,31.481,-7.1141
-55.441,14.467,60.318,-11.148,-83.411,63.928,28.028,24.806,19.983,23.196,0.80402,18.287,40.007,-7.3704,31.481,-7.1141
-55.506,14.501,60.159,-11.077,-83.491,63.869,27.824,24.881,20.289,23.604,0.6677,18.357,39.851,-7.1551,31.431,-7.0034
-55.506,14.501,60.159,-11.077,-83.491,63.869,27.824,24.881,20.289,23.604,0.6677,18.357,39.851,-7.1551,31.431,-7.0034
-55.572,14.535,59.998,-11.006,-83.57,63.809,27.62,24.955,20.596,24.013,0.53009,18.427,39.692,-6.9405,31.38,-6.8935
-55.572,14.535,59.998,-11.006,-83.57,63.809,27.62,24.955,20.596,24.013,0.53009,18.427,39.692,-6.9405,31.38,-6.8935
-55.572,14.535,59.998,-11.006,-83.57,63.809,27.62,24.955,20.596,24.013,0.53009,18.427,39.692,-6.9405,31.38,-6.8935
-55.638,14.567,59.838,-10.936,-83.648,63.749,27.414,25.028,20.903,24.423,0.39119,18.495,39.531,-6.7265,31.327,-6.7844
-55.705,14.598,59.676,-10.867,-83.726,63.688,27.208,25.101,21.21,24.833,0.25099,18.564,39.367,-6.5131,31.273,-6.6762
-55.705,14.598,59.676,-10.867,-83.726,63.688,27.208,25.101,21.21,24.833,0.25099,18.564,39.367,-6.5131,31.273,-6.6762
-55.772,14.629,59.514,-10.799,-83.803,63.628,27.001,25.173,21.517,25.243,0.10951,18.631,39.201,-6.3004,31.217,-6.5688
-55.772,14.629,59.514,-10.799,-83.803,63.628,27.001,25.173,21.517,25.243,0.10951,18.631,39.201,-6.3004,31.217,-6.5688
-55.84,14.658,59.352,-10.731,-83.879,63.567,26.794,25.244,21.824,25.654,-0.033263,18.698,39.033,-6.0884,31.16,-6.4623
-55.84,14.658,59.352,-10.731,-83.879,63.567,26.794,25.244,21.824,25.654,-0.033263,18.698,39.033,-6.0884,31.16,-6.4623
-55.908,14.687,59.188,-10.664,-83.955,63.505,26.586,25.314,22.13,26.064,-0.17733,18.764,38.862,-5.877,31.101,-6.3566
-55.908,14.687,59.188,-10.664,-83.955,63.505,26.586,25.314,22.13,26.064,-0.17733,18.764,38.862,-5.877,31.101,-6.3566
-55.976,14.715,59.024,-10.598,-84.03,63.443,26.377,25.384,22.437,26.476,-0.3227,18.829,38.689,-5.6663,31.04,-6.2517
-55.976,14.715,59.024,-10.598,-84.03,63.443,26.377,25.384,22.437,26.476,-0.3227,18.829,38.689,-5.6663,31.04,-6.2517
-55.976,14.715,59.024,-10.598,-84.03,63.443,26.377,25.384,22.437,26.476,-0.3227,18.829,38.689,-5.6663,31.04,-6.2517
-56.045,14.742,58.859,-10.533,-84.104,63.381,26.167,25.453,22.744,26.887,-0.46936,18.894,38.514,-5.4562,30.978,-6.1477
-56.045,14.742,58.859,-10.533,-84.104,63.381,26.167,25.453,22.744,26.887,-0.46936,18.894,38.514,-5.4562,30.978,-6.1477
-56.045,14.742,58.859,-10.533,-84.104,63.381,26.167,25.453,22.744,26.887,-0.46936,18.894,38.514,-5.4562,30.978,-6.1477
-56.184,14.792,58.528,-10.404,-84.25,63.256,25.746,25.588,23.357,27.71,-0.76657,19.02,38.156,-5.038,30.849,-5.9421
-56.184,14.792,58.528,-10.404,-84.25,63.256,25.746,25.588,23.357,27.71,-0.76657,19.02,38.156,-5.038,30.849,-5.9421
-56.184,14.792,58.528,-10.404,-84.25,63.256,25.746,25.588,23.357,27.71,-0.76657,19.02,38.156,-5.038,30.849,-5.9421
-56.255,14.816,58.361,-10.341,-84.323,63.193,25.534,25.655,23.663,28.122,-0.91712,19.083,37.973,-4.8299,30.782,-5.8406
-56.255,14.816,58.361,-10.341,-84.323,63.193,25.534,25.655,23.663,28.122,-0.91712,19.083,37.973,-4.8299,30.782,-5.8406
-56.326,14.839,58.194,-10.278,-84.394,63.13,25.322,25.721,23.969,28.534,-1.069,19.144,37.788,-4.6225,30.714,-5.7399
-56.397,14.861,58.026,-10.217,-84.465,63.066,25.109,25.785,24.274,28.946,-1.2221,19.205,37.601,-4.4157,30.644,-5.64
-56.397,14.861,58.026,-10.217,-84.465,63.066,25.109,25.785,24.274,28.946,-1.2221,19.205,37.601,-4.4157,30.644,-5.64
-56.468,14.882,57.857,-10.156,-84.536,63.002,24.895,25.85,24.579,29.358,-1.3766,19.265,37.412,-4.2097,30.572,-5.541
-56.468,14.882,57.857,-10.156,-84.536,63.002,24.895,25.85,24.579,29.358,-1.3766,19.265,37.412,-4.2097,30.572,-5.541
-56.541,14.902,57.688,-10.095,-84.606,62.938,24.68,25.913,24.884,29.77,-1.5323,19.325,37.22,-4.0042,30.499,-5.4428
-56.541,14.902,57.688,-10.095,-84.606,62.938,24.68,25.913,24.884,29.77,-1.5323,19.325,37.22,-4.0042,30.499,-5.4428
-56.613,14.922,57.518,-10.036,-84.675,62.873,24.465,25.975,25.188,30.182,-1.6893,19.383,37.026,-3.7995,30.424,-5.3455
-56.613,14.922,57.518,-10.036,-84.675,62.873,24.465,25.975,25.188,30.182,-1.6893,19.383,37.026,-3.7995,30.424,-5.3455
-56.687,14.94,57.348,-9.9773,-84.744,62.807,24.249,26.037,25.492,30.594,-1.8477,19.441,36.83,-3.5954,30.348,-5.2489
-56.687,14.94,57.348,-9.9773,-84.744,62.807,24.249,26.037,25.492,30.594,-1.8477,19.441,36.83,-3.5954,30.348,-5.2489
-56.687,14.94,57.348,-9.9773,-84.744,62.807,24.249,26.037,25.492,30.594,-1.8477,19.441,36.83,-3.5954,30.348,-5.2489
-56.76,14.957,57.177,-9.9195,-84.812,62.742,24.033,26.098,25.796,31.005,-2.0073,19.498,36.631,-3.392,30.27,-5.1532
-56.76,14.957,57.177,-9.9195,-84.812,62.742,24.033,26.098,25.796,31.005,-2.0073,19.498,36.631,-3.392,30.27,-5.1532
-56.834,14.973,57.005,-9.8624,-84.88,62.676,23.815,26.158,26.098,31.416,-2.1683,19.554,36.431,-3.1893,30.19,-5.0584
-56.834,14.973,57.005,-9.8624,-84.88,62.676,23.815,26.158,26.098,31.416,-2.1683,19.554,36.431,-3.1893,30.19,-5.0584
-56.834,14.973,57.005,-9.8624,-84.88,62.676,23.815,26.158,26.098,31.416,-2.1683,19.554,36.431,-3.1893,30.19,-5.0584
-56.984,15.003,56.659,-9.7507,-85.013,62.542,23.378,26.276,26.702,32.238,-2.494,19.665,36.022,-2.7858,30.026,-4.8711
-56.984,15.003,56.659,-9.7507,-85.013,62.542,23.378,26.276,26.702,32.238,-2.494,19.665,36.022,-2.7858,30.026,-4.8711
-56.984,15.003,56.659,-9.7507,-85.013,62.542,23.378,26.276,26.702,32.238,-2.494,19.665,36.022,-2.7858,30.026,-4.8711
-57.06,15.016,56.486,-9.6961,-85.079,62.475,23.159,26.334,27.003,32.649,-2.6588,19.718,35.815,-2.5851,29.941,-4.7787
-57.06,15.016,56.486,-9.6961,-85.079,62.475,23.159,26.334,27.003,32.649,-2.6588,19.718,35.815,-2.5851,29.941,-4.7787
-57.136,15.029,56.311,-9.6423,-85.145,62.407,22.939,26.391,27.303,33.059,-2.825,19.772,35.605,-2.385,29.855,-4.6871
-57.213,15.04,56.136,-9.5893,-85.21,62.339,22.718,26.447,27.602,33.468,-2.9924,19.824,35.393,-2.1857,29.767,-4.5963
-57.213,15.04,56.136,-9.5893,-85.21,62.339,22.718,26.447,27.602,33.468,-2.9924,19.824,35.393,-2.1857,29.767,-4.5963
-57.29,15.051,55.961,-9.5371,-85.274,62.27,22.496,26.502,27.901,33.877,-3.1611,19.876,35.179,-1.987,29.678,-4.5064
-57.29,15.051,55.961,-9.5371,-85.274,62.27,22.496,26.502,27.901,33.877,-3.1611,19.876,35.179,-1.987,29.678,-4.5064
-57.29,15.051,55.961,-9.5371,-85.274,62.27,22.496,26.502,27.901,33.877,-3.1611,19.876,35.179,-1.987,29.678,-4.5064
-57.368,15.061,55.785,-9.4858,-85.338,62.201,22.274,26.556,28.198,34.286,-3.3311,19.926,34.962,-1.7889,29.587,-4.4172
-57.368,15.061,55.785,-9.4858,-85.338,62.201,22.274,26.556,28.198,34.286,-3.3311,19.926,34.962,-1.7889,29.587,-4.4172
-57.446,15.069,55.608,-9.4354,-85.402,62.131,22.051,26.61,28.495,34.694,-3.5024,19.976,34.744,-1.5916,29.494,-4.3289
-57.446,15.069,55.608,-9.4354,-85.402,62.131,22.051,26.61,28.495,34.694,-3.5024,19.976,34.744,-1.5916,29.494,-4.3289
-57.446,15.069,55.608,-9.4354,-85.402,62.131,22.051,26.61,28.495,34.694,-3.5024,19.976,34.744,-1.5916,29.494,-4.3289
-57.604,15.084,55.252,-9.337,-85.528,61.99,21.602,26.714,29.086,35.508,-3.8488,20.074,34.3,-1.1989,29.303,-4.1547
-57.604,15.084,55.252,-9.337,-85.528,61.99,21.602,26.714,29.086,35.508,-3.8488,20.074,34.3,-1.1989,29.303,-4.1547
-57.604,15.084,55.252,-9.337,-85.528,61.99,21.602,26.714,29.086,35.508,-3.8488,20.074,34.3,-1.1989,29.303,-4.1547
-57.684,15.089,55.074,-9.2891,-85.59,61.919,21.377,26.765,29.38,35.914,-4.0239,20.121,34.075,-1.0036,29.206,-4.0688
-57.684,15.089,55.074,-9.2891,-85.59,61.919,21.377,26.765,29.38,35.914,-4.0239,20.121,34.075,-1.0036,29.206,-4.0688
-57.765,15.094,54.895,-9.242,-85.652,61.847,21.151,26.816,29.673,36.319,-4.2004,20.168,33.847,-0.80893,29.107,-3.9837
-57.765,15.094,54.895,-9.242,-85.652,61.847,21.151,26.816,29.673,36.319,-4.2004,20.168,33.847,-0.80893,29.107,-3.9837
-57.846,15.098,54.715,-9.1959,-85.713,61.775,20.925,26.865,29.965,36.724,-4.3781,20.214,33.618,-0.61496,29.006,-3.8994
-57.846,15.098,54.715,-9.1959,-85.713,61.775,20.925,26.865,29.965,36.724,-4.3781,20.214,33.618,-0.61496,29.006,-3.8994
-57.927,15.101,54.534,-9.1506,-85.774,61.702,20.698,26.914,30.255,37.127,-4.5571,20.259,33.386,-0.42165,28.903,-3.8158
-58.01,15.103,54.354,-9.1062,-85.835,61.629,20.47,26.961,30.545,37.53,-4.7373,20.303,33.153,-0.22902,28.799,-3.7331
-58.01,15.103,54.354,-9.1062,-85.835,61.629,20.47,26.961,30.545,37.53,-4.7373,20.303,33.153,-0.22902,28.799,-3.7331
-58.092,15.104,54.172,-9.0627,-85.895,61.555,20.241,27.008,30.833,37.932,-4.9189,20.347,32.917,-0.037065,28.693,-3.6512
-58.092,15.104,54.172,-9.0627,-85.895,61.555,20.241,27.008,30.833,37.932,-4.9189,20.347,32.917,-0.037065,28.693,-3.6512
-58.092,15.104,54.172,-9.0627,-85.895,61.555,20.241,27.008,30.833,37.932,-4.9189,20.347,32.917,-0.037065,28.693,-3.6512
-58.175,15.103,53.99,-9.0201,-85.955,61.481,20.012,27.054,31.121,38.333,-5.1017,20.389,32.679,0.15422,28.585,-3.5701
-58.175,15.103,53.99,-9.0201,-85.955,61.481,20.012,27.054,31.121,38.333,-5.1017,20.389,32.679,0.15422,28.585,-3.5701
-58.259,15.102,53.807,-8.9784,-86.015,61.406,19.782,27.099,31.406,38.732,-5.2858,20.431,32.439,0.34484,28.476,-3.4897
-58.344,15.1,53.624,-8.9376,-86.074,61.331,19.551,27.143,31.691,39.131,-5.4711,20.472,32.197,0.53478,28.365,-3.4101
-58.344,15.1,53.624,-8.9376,-86.074,61.331,19.551,27.143,31.691,39.131,-5.4711,20.472,32.197,0.53478,28.365,-3.4101
-58.428,15.098,53.44,-8.8978,-86.133,61.255,19.319,27.187,31.974,39.529,-5.6577,20.512,31.953,0.72406,28.253,-3.3313
-58.428,15.098,53.44,-8.8978,-86.133,61.255,19.319,27.187,31.974,39.529,-5.6577,20.512,31.953,0.72406,28.253,-3.3313
-58.514,15.094,53.256,-8.8588,-86.191,61.179,19.087,27.229,32.256,39.925,-5.8456,20.551,31.707,0.91266,28.139,-3.2533
-58.514,15.094,53.256,-8.8588,-86.191,61.179,19.087,27.229,32.256,39.925,-5.8456,20.551,31.707,0.91266,28.139,-3.2533
-58.514,15.094,53.256,-8.8588,-86.191,61.179,19.087,27.229,32.256,39.925,-5.8456,20.551,31.707,0.91266,28.139,-3.2533
-58.6,15.089,53.071,-8.8208,-86.249,61.102,18.855,27.271,32.537,40.321,-6.0347,20.59,31.459,1.1006,28.023,-3.176
-58.687,15.083,52.885,-8.7837,-86.307,61.024,18.621,27.312,32.816,40.715,-6.2251,20.627,31.209,1.2879,27.905,-3.0995
-58.687,15.083,52.885,-8.7837,-86.307,61.024,18.621,27.312,32.816,40.715,-6.2251,20.627,31.209,1.2879,27.905,-3.0995
-58.774,15.076,52.699,-8.7476,-86.364,60.946,18.387,27.352,33.093,41.107,-6.4168,20.664,30.957,1.4745,27.786,-3.0238
-58.774,15.076,52.699,-8.7476,-86.364,60.946,18.387,27.352,33.093,41.107,-6.4168,20.664,30.957,1.4745,27.786,-3.0238
-58.774,15.076,52.699,-8.7476,-86.364,60.946,18.387,27.352,33.093,41.107,-6.4168,20.664,30.957,1.4745,27.786,-3.0238
-58.862,15.069,52.512,-8.7124,-86.422,60.867,18.152,27.391,33.369,41.499,-6.6096,20.7,30.702,1.6604,27.665,-2.9488
-58.95,15.06,52.325,-8.6782,-86.478,60.788,17.917,27.429,33.644,41.889,-6.8038,20.734,30.446,1.8457,27.543,-2.8746
-58.95,15.06,52.325,-8.6782,-86.478,60.788,17.917,27.429,33.644,41.889,-6.8038,20.734,30.446,1.8457,27.543,-2.8746
-59.039,15.05,52.138,-8.6449,-86.535,60.708,17.681,27.467,33.917,42.277,-6.9991,20.768,30.188,2.0303,27.419,-2.8011
-59.039,15.05,52.138,-8.6449,-86.535,60.708,17.681,27.467,33.917,42.277,-6.9991,20.768,30.188,2.0303,27.419,-2.8011
-59.039,15.05,52.138,-8.6449,-86.535,60.708,17.681,27.467,33.917,42.277,-6.9991,20.768,30.188,2.0303,27.419,-2.8011
-59.128,15.04,51.949,-8.6126,-86.591,60.628,17.444,27.503,34.188,42.664,-7.1957,20.802,29.928,2.2143,27.293,-2.7284
-59.128,15.04,51.949,-8.6126,-86.591,60.628,17.444,27.503,34.188,42.664,-7.1957,20.802,29.928,2.2143,27.293,-2.7284
-59.218,15.028,51.761,-8.5812,-86.647,60.546,17.206,27.539,34.458,43.05,-7.3936,20.834,29.666,2.3976,27.166,-2.6564
-59.309,15.016,51.571,-8.5508,-86.703,60.465,16.968,27.574,34.725,43.434,-7.5926,20.865,29.402,2.5802,27.037,-2.5852
-59.309,15.016,51.571,-8.5508,-86.703,60.465,16.968,27.574,34.725,43.434,-7.5926,20.865,29.402,2.5802,27.037,-2.5852
-59.4,15.002,51.382,-8.5215,-86.758,60.382,16.729,27.608,34.992,43.816,-7.7929,20.896,29.136,2.7622,26.906,-2.5147
-59.4,15.002,51.382,-8.5215,-86.758,60.382,16.729,27.608,34.992,43.816,-7.7929,20.896,29.136,2.7622,26.906,-2.5147
-59.492,14.988,51.191,-8.4931,-86.814,60.299,16.49,27.641,35.256,44.196,-7.9944,20.925,28.869,2.9436,26.774,-2.4449
-59.492,14.988,51.191,-8.4931,-86.814,60.299,16.49,27.641,35.256,44.196,-7.9944,20.925,28.869,2.9436,26.774,-2.4449
-59.585,14.973,51.001,-8.4657,-86.869,60.216,16.25,27.673,35.519,44.575,-8.1971,20.954,28.599,3.1242,26.64,-2.3758
-59.585,14.973,51.001,-8.4657,-86.869,60.216,16.25,27.673,35.519,44.575,-8.1971,20.954,28.599,3.1242,26.64,-2.3758
-59.678,14.956,50.809,-8.4393,-86.923,60.131,16.009,27.704,35.78,44.952,-8.401,20.982,28.327,3.3043,26.504,-2.3075
-59.678,14.956,50.809,-8.4393,-86.923,60.131,16.009,27.704,35.78,44.952,-8.401,20.982,28.327,3.3043,26.504,-2.3075
-59.771,14.939,50.618,-8.4139,-86.978,60.047,15.767,27.735,36.039,45.327,-8.6061,21.008,28.054,3.4837,26.367,-2.2399
-59.771,14.939,50.618,-8.4139,-86.978,60.047,15.767,27.735,36.039,45.327,-8.6061,21.008,28.054,3.4837,26.367,-2.2399
-59.865,14.921,50.425,-8.3895,-87.032,59.961,15.525,27.764,36.296,45.701,-8.8125,21.034,27.779,3.6624,26.228,-2.173
-59.865,14.921,50.425,-8.3895,-87.032,59.961,15.525,27.764,36.296,45.701,-8.8125,21.034,27.779,3.6624,26.228,-2.173
-59.96,14.902,50.233,-8.3662,-87.086,59.875,15.283,27.793,36.551,46.072,-9.02,21.059,27.502,3.8405,26.088,-2.1067
-59.96,14.902,50.233,-8.3662,-87.086,59.875,15.283,27.793,36.551,46.072,-9.02,21.059,27.502,3.8405,26.088,-2.1067
-60.055,14.882,50.039,-8.3439,-87.14,59.788,15.039,27.821,36.804,46.441,-9.2287,21.083,27.223,4.018,25.945,-2.0412
-60.055,14.882,50.039,-8.3439,-87.14,59.788,15.039,27.821,36.804,46.441,-9.2287,21.083,27.223,4.018,25.945,-2.0412
-60.055,14.882,50.039,-8.3439,-87.14,59.788,15.039,27.821,36.804,46.441,-9.2287,21.083,27.223,4.018,25.945,-2.0412
-60.151,14.861,49.846,-8.3226,-87.194,59.701,14.795,27.848,37.055,46.809,-9.4386,21.107,26.942,4.1948,25.802,-1.9764
-60.151,14.861,49.846,-8.3226,-87.194,59.701,14.795,27.848,37.055,46.809,-9.4386,21.107,26.942,4.1948,25.802,-1.9764
-60.151,14.861,49.846,-8.3226,-87.194,59.701,14.795,27.848,37.055,46.809,-9.4386,21.107,26.942,4.1948,25.802,-1.9764
-60.345,14.816,49.457,-8.2831,-87.301,59.524,14.305,27.899,37.552,47.537,-9.8619,21.15,26.375,4.5465,25.509,-1.8489
-60.345,14.816,49.457,-8.2831,-87.301,59.524,14.305,27.899,37.552,47.537,-9.8619,21.15,26.375,4.5465,25.509,-1.8489
-60.443,14.793,49.262,-8.265,-87.354,59.434,14.059,27.924,37.797,47.898,-10.075,21.17,26.089,4.7215,25.36,-1.7861
-60.443,14.793,49.262,-8.265,-87.354,59.434,14.059,27.924,37.797,47.898,-10.075,21.17,26.089,4.7215,25.36,-1.7861
-60.443,14.793,49.262,-8.265,-87.354,59.434,14.059,27.924,37.797,47.898,-10.075,21.17,26.089,4.7215,25.36,-1.7861
-60.541,14.768,49.067,-8.2479,-87.407,59.344,13.813,27.947,38.04,48.257,-10.29,21.19,25.802,4.8958,25.21,-1.724
-60.64,14.742,48.871,-8.2319,-87.46,59.253,13.565,27.97,38.281,48.613,-10.506,21.208,25.512,5.0694,25.058,-1.6626
-60.64,14.742,48.871,-8.2319,-87.46,59.253,13.565,27.97,38.281,48.613,-10.506,21.208,25.512,5.0694,25.058,-1.6626
-60.74,14.716,48.674,-8.2169,-87.513,59.162,13.318,27.992,38.519,48.967,-10.722,21.226,25.221,5.2425,24.904,-1.6018
-60.74,14.716,48.674,-8.2169,-87.513,59.162,13.318,27.992,38.519,48.967,-10.722,21.226,25.221,5.2425,24.904,-1.6018
-60.84,14.689,48.478,-8.203,-87.565,59.07,13.069,28.012,38.756,49.319,-10.94,21.242,24.928,5.4149,24.749,-1.5417
-60.84,14.689,48.478,-8.203,-87.565,59.07,13.069,28.012,38.756,49.319,-10.94,21.242,24.928,5.4149,24.749,-1.5417
-60.94,14.66,48.281,-8.1902,-87.617,58.977,12.82,28.032,38.99,49.668,-11.16,21.258,24.633,5.5867,24.592,-1.4823
-60.94,14.66,48.281,-8.1902,-87.617,58.977,12.82,28.032,38.99,49.668,-11.16,21.258,24.633,5.5867,24.592,-1.4823
-61.042,14.631,48.083,-8.1785,-87.67,58.883,12.571,28.051,39.222,50.015,-11.38,21.273,24.337,5.7579,24.434,-1.4235
-61.042,14.631,48.083,-8.1785,-87.67,58.883,12.571,28.051,39.222,50.015,-11.38,21.273,24.337,5.7579,24.434,-1.4235
-61.042,14.631,48.083,-8.1785,-87.67,58.883,12.571,28.051,39.222,50.015,-11.38,21.273,24.337,5.7579,24.434,-1.4235
-61.143,14.601,47.885,-8.1679,-87.722,58.789,12.32,28.07,39.452,50.36,-11.601,21.286,24.039,5.9284,24.274,-1.3653
-61.143,14.601,47.885,-8.1679,-87.722,58.789,12.32,28.07,39.452,50.36,-11.601,21.286,24.039,5.9284,24.274,-1.3653
-61.246,14.57,47.687,-8.1585,-87.774,58.694,12.069,28.087,39.679,50.702,-11.824,21.299,23.74,6.0984,24.112,-1.3078
-61.246,14.57,47.687,-8.1585,-87.774,58.694,12.069,28.087,39.679,50.702,-11.824,21.299,23.74,6.0984,24.112,-1.3078
-61.246,14.57,47.687,-8.1585,-87.774,58.694,12.069,28.087,39.679,50.702,-11.824,21.299,23.74,6.0984,24.112,-1.3078
-61.453,14.506,47.289,-8.1428,-87.877,58.502,11.566,28.119,40.127,51.377,-12.272,21.321,23.136,6.4365,23.784,-1.1946
-61.453,14.506,47.289,-8.1428,-87.877,58.502,11.566,28.119,40.127,51.377,-12.272,21.321,23.136,6.4365,23.784,-1.1946
-61.557,14.472,47.089,-8.1367,-87.929,58.404,11.313,28.134,40.347,51.711,-12.498,21.331,22.832,6.6046,23.617,-1.139
-61.557,14.472,47.089,-8.1367,-87.929,58.404,11.313,28.134,40.347,51.711,-12.498,21.331,22.832,6.6046,23.617,-1.139
-61.557,14.472,47.089,-8.1367,-87.929,58.404,11.313,28.134,40.347,51.711,-12.498,21.331,22.832,6.6046,23.617,-1.139
-61.662,14.437,46.889,-8.1316,-87.981,58.307,11.06,28.148,40.565,52.042,-12.725,21.34,22.526,6.7722,23.449,-1.0839
-61.662,14.437,46.889,-8.1316,-87.981,58.307,11.06,28.148,40.565,52.042,-12.725,21.34,22.526,6.7722,23.449,-1.0839
-61.767,14.402,46.689,-8.1278,-88.032,58.208,10.806,28.161,40.78,52.37,-12.953,21.347,22.218,6.9391,23.28,-1.0295
-61.767,14.402,46.689,-8.1278,-88.032,58.208,10.806,28.161,40.78,52.37,-12.953,21.347,22.218,6.9391,23.28,-1.0295
-61.873,14.366,46.489,-8.125,-88.084,58.109,10.552,28.173,40.993,52.696,-13.182,21.354,21.909,7.1055,23.108,-0.97566
-61.873,14.366,46.489,-8.125,-88.084,58.109,10.552,28.173,40.993,52.696,-13.182,21.354,21.909,7.1055,23.108,-0.97566
-61.98,14.329,46.288,-8.1235,-88.135,58.009,10.297,28.184,41.204,53.018,-13.412,21.36,21.599,7.2713,22.935,-0.92241
-62.087,14.291,46.086,-8.123,-88.186,57.908,10.041,28.194,41.412,53.338,-13.643,21.364,21.287,7.4364,22.761,-0.86974
-62.087,14.291,46.086,-8.123,-88.186,57.908,10.041,28.194,41.412,53.338,-13.643,21.364,21.287,7.4364,22.761,-0.86974
-62.087,14.291,46.086,-8.123,-88.186,57.908,10.041,28.194,41.412,53.338,-13.643,21.364,21.287,7.4364,22.761,-0.86974
-62.194,14.252,45.885,-8.1238,-88.237,57.806,9.7852,28.204,41.617,53.654,-13.875,21.368,20.973,7.6011,22.585,-0.81766
-62.194,14.252,45.885,-8.1238,-88.237,57.806,9.7852,28.204,41.617,53.654,-13.875,21.368,20.973,7.6011,22.585,-0.81766
-62.194,14.252,45.885,-8.1238,-88.237,57.806,9.7852,28.204,41.617,53.654,-13.875,21.368,20.973,7.6011,22.585,-0.81766
-62.411,14.171,45.481,-8.1288,-88.339,57.601,9.2714,28.22,42.02,54.278,-14.342,21.372,20.342,7.9285,22.228,-0.7152
-62.411,14.171,45.481,-8.1288,-88.339,57.601,9.2714,28.22,42.02,54.278,-14.342,21.372,20.342,7.9285,22.228,-0.7152
-62.411,14.171,45.481,-8.1288,-88.339,57.601,9.2714,28.22,42.02,54.278,-14.342,21.372,20.342,7.9285,22.228,-0.7152
-62.411,14.171,45.481,-8.1288,-88.339,57.601,9.2714,28.22,42.02,54.278,-14.342,21.372,20.342,7.9285,22.228,-0.7152
-62.631,14.088,45.075,-8.1386,-88.441,57.393,8.7553,28.233,42.413,54.889,-14.814,21.373,19.705,8.2537,21.865,-0.61498
-62.631,14.088,45.075,-8.1386,-88.441,57.393,8.7553,28.233,42.413,54.889,-14.814,21.373,19.705,8.2537,21.865,-0.61498
-62.742,14.044,44.872,-8.1452,-88.492,57.287,8.4964,28.238,42.605,55.19,-15.051,21.371,19.384,8.4154,21.682,-0.5657
-62.742,14.044,44.872,-8.1452,-88.492,57.287,8.4964,28.238,42.605,55.19,-15.051,21.371,19.384,8.4154,21.682,-0.5657
-62.742,14.044,44.872,-8.1452,-88.492,57.287,8.4964,28.238,42.605,55.19,-15.051,21.371,19.384,8.4154,21.682,-0.5657
-62.853,14,44.669,-8.1531,-88.543,57.181,8.237,28.242,42.795,55.487,-15.289,21.369,19.062,8.5766,21.496,-0.51695
-62.853,14,44.669,-8.1531,-88.543,57.181,8.237,28.242,42.795,55.487,-15.289,21.369,19.062,8.5766,21.496,-0.51695
-62.853,14,44.669,-8.1531,-88.543,57.181,8.237,28.242,42.795,55.487,-15.289,21.369,19.062,8.5766,21.496,-0.51695
-63.077,13.91,44.261,-8.1725,-88.644,56.967,7.7167,28.248,43.166,56.072,-15.769,21.36,18.414,8.8973,21.121,-0.42105
-63.077,13.91,44.261,-8.1725,-88.644,56.967,7.7167,28.248,43.166,56.072,-15.769,21.36,18.414,8.8973,21.121,-0.42105
-63.077,13.91,44.261,-8.1725,-88.644,56.967,7.7167,28.248,43.166,56.072,-15.769,21.36,18.414,8.8973,21.121,-0.42105
-63.189,13.863,44.057,-8.184,-88.695,56.859,7.4557,28.249,43.348,56.36,-16.01,21.355,18.088,9.0568,20.931,-0.37389
-63.189,13.863,44.057,-8.184,-88.695,56.859,7.4557,28.249,43.348,56.36,-16.01,21.355,18.088,9.0568,20.931,-0.37389
-63.303,13.816,43.853,-8.1968,-88.746,56.75,7.1942,28.25,43.527,56.644,-16.252,21.348,17.761,9.2158,20.739,-0.32724
-63.303,13.816,43.853,-8.1968,-88.746,56.75,7.1942,28.25,43.527,56.644,-16.252,21.348,17.761,9.2158,20.739,-0.32724
-63.303,13.816,43.853,-8.1968,-88.746,56.75,7.1942,28.25,43.527,56.644,-16.252,21.348,17.761,9.2158,20.739,-0.32724
-63.531,13.719,43.443,-8.226,-88.847,56.529,6.6697,28.249,43.876,57.201,-16.739,21.331,17.102,9.5321,20.352,-0.23545
-63.531,13.719,43.443,-8.226,-88.847,56.529,6.6697,28.249,43.876,57.201,-16.739,21.331,17.102,9.5321,20.352,-0.23545
-63.531,13.719,43.443,-8.226,-88.847,56.529,6.6697,28.249,43.876,57.201,-16.739,21.331,17.102,9.5321,20.352,-0.23545
-63.646,13.669,43.238,-8.2425,-88.898,56.418,6.4066,28.247,44.046,57.474,-16.984,21.321,16.771,9.6895,20.156,-0.1903
-63.646,13.669,43.238,-8.2425,-88.898,56.418,6.4066,28.247,44.046,57.474,-16.984,21.321,16.771,9.6895,20.156,-0.1903
-63.646,13.669,43.238,-8.2425,-88.898,56.418,6.4066,28.247,44.046,57.474,-16.984,21.321,16.771,9.6895,20.156,-0.1903
-63.646,13.669,43.238,-8.2425,-88.898,56.418,6.4066,28.247,44.046,57.474,-16.984,21.321,16.771,9.6895,20.156,-0.1903
-63.878,13.567,42.827,-8.2793,-88.999,56.192,5.8791,28.24,44.378,58.009,-17.476,21.298,16.106,10.003,19.759,-0.10144
-63.878,13.567,42.827,-8.2793,-88.999,56.192,5.8791,28.24,44.378,58.009,-17.476,21.298,16.106,10.003,19.759,-0.10144
-63.878,13.567,42.827,-8.2793,-88.999,56.192,5.8791,28.24,44.378,58.009,-17.476,21.298,16.106,10.003,19.759,-0.10144
-64.112,13.462,42.415,-8.3212,-89.1,55.964,5.3496,28.23,44.699,58.53,-17.972,21.271,15.435,10.314,19.357,-0.014464
-64.112,13.462,42.415,-8.3212,-89.1,55.964,5.3496,28.23,44.699,58.53,-17.972,21.271,15.435,10.314,19.357,-0.014464
-64.112,13.462,42.415,-8.3212,-89.1,55.964,5.3496,28.23,44.699,58.53,-17.972,21.271,15.435,10.314,19.357,-0.014464
-64.23,13.409,42.209,-8.3441,-89.151,55.849,5.0842,28.224,44.855,58.785,-18.222,21.255,15.098,10.468,19.153,0.028334
-64.23,13.409,42.209,-8.3441,-89.151,55.849,5.0842,28.224,44.855,58.785,-18.222,21.255,15.098,10.468,19.153,0.028334
-64.348,13.354,42.002,-8.3683,-89.202,55.733,4.8182,28.217,45.007,59.035,-18.472,21.239,14.76,10.623,18.948,0.070682
-64.467,13.299,41.796,-8.3938,-89.252,55.616,4.5519,28.209,45.158,59.282,-18.723,21.221,14.42,10.776,18.742,0.11259
-64.467,13.299,41.796,-8.3938,-89.252,55.616,4.5519,28.209,45.158,59.282,-18.723,21.221,14.42,10.776,18.742,0.11259
-64.586,13.243,41.589,-8.4206,-89.303,55.498,4.285,28.2,45.305,59.525,-18.975,21.202,14.08,10.929,18.534,0.15406
-64.586,13.243,41.589,-8.4206,-89.303,55.498,4.285,28.2,45.305,59.525,-18.975,21.202,14.08,10.929,18.534,0.15406
-64.706,13.186,41.382,-8.4487,-89.354,55.379,4.0177,28.19,45.449,59.764,-19.227,21.182,13.739,11.082,18.325,0.1951
-64.706,13.186,41.382,-8.4487,-89.354,55.379,4.0177,28.19,45.449,59.764,-19.227,21.182,13.739,11.082,18.325,0.1951
-64.706,13.186,41.382,-8.4487,-89.354,55.379,4.0177,28.19,45.449,59.764,-19.227,21.182,13.739,11.082,18.325,0.1951
-64.826,13.128,41.175,-8.4781,-89.404,55.26,3.7499,28.18,45.59,59.999,-19.481,21.161,13.396,11.234,18.114,0.23572
-64.826,13.128,41.175,-8.4781,-89.404,55.26,3.7499,28.18,45.59,59.999,-19.481,21.161,13.396,11.234,18.114,0.23572
-64.947,13.07,40.968,-8.5089,-89.455,55.14,3.4817,28.168,45.728,60.229,-19.735,21.139,13.053,11.386,17.902,0.27593
-64.947,13.07,40.968,-8.5089,-89.455,55.14,3.4817,28.168,45.728,60.229,-19.735,21.139,13.053,11.386,17.902,0.27593
-65.068,13.011,40.761,-8.541,-89.506,55.019,3.2131,28.156,45.863,60.456,-19.99,21.116,12.708,11.537,17.688,0.31573
-65.19,12.951,40.553,-8.5744,-89.557,54.897,2.944,28.143,45.995,60.679,-20.246,21.092,12.363,11.688,17.473,0.35513
-65.313,12.891,40.346,-8.6092,-89.608,54.775,2.6745,28.128,46.124,60.897,-20.503,21.066,12.016,11.838,17.257,0.39415
-65.313,12.891,40.346,-8.6092,-89.608,54.775,2.6745,28.128,46.124,60.897,-20.503,21.066,12.016,11.838,17.257,0.39415
-65.313,12.891,40.346,-8.6092,-89.608,54.775,2.6745,28.128,46.124,60.897,-20.503,21.066,12.016,11.838,17.257,0.39415
-65.435,12.829,40.138,-8.6454,-89.658,54.651,2.4046,28.113,46.249,61.111,-20.76,21.039,11.669,11.988,17.039,0.43277
-65.435,12.829,40.138,-8.6454,-89.658,54.651,2.4046,28.113,46.249,61.111,-20.76,21.039,11.669,11.988,17.039,0.43277
-65.435,12.829,40.138,-8.6454,-89.658,54.651,2.4046,28.113,46.249,61.111,-20.76,21.039,11.669,11.988,17.039,0.43277
-65.559,12.767,39.931,-8.6829,-89.709,54.527,2.1343,28.098,46.372,61.321,-21.018,21.012,11.32,12.138,16.819,0.47102
-65.682,12.705,39.723,-8.7219,-89.76,54.402,1.8636,28.081,46.492,61.527,-21.277,20.982,10.971,12.286,16.599,0.50891
-65.682,12.705,39.723,-8.7219,-89.76,54.402,1.8636,28.081,46.492,61.527,-21.277,20.982,10.971,12.286,16.599,0.50891
-65.807,12.641,39.515,-8.7622,-89.811,54.276,1.5924,28.063,46.608,61.728,-21.536,20.952,10.621,12.435,16.377,0.54643
-65.807,12.641,39.515,-8.7622,-89.811,54.276,1.5924,28.063,46.608,61.728,-21.536,20.952,10.621,12.435,16.377,0.54643
-65.932,12.577,39.307,-8.8039,-89.862,54.15,1.3209,28.045,46.721,61.925,-21.797,20.921,10.27,12.583,16.153,0.58359
-65.932,12.577,39.307,-8.8039,-89.862,54.15,1.3209,28.045,46.721,61.925,-21.797,20.921,10.27,12.583,16.153,0.58359
-66.057,12.512,39.099,-8.847,-89.913,54.022,1.049,28.026,46.832,62.117,-22.057,20.888,9.918,12.73,15.928,0.62041
-66.057,12.512,39.099,-8.847,-89.913,54.022,1.049,28.026,46.832,62.117,-22.057,20.888,9.918,12.73,15.928,0.62041
-66.057,12.512,39.099,-8.847,-89.913,54.022,1.049,28.026,46.832,62.117,-22.057,20.888,9.918,12.73,15.928,0.62041
-66.182,12.447,38.891,-8.8915,-89.964,53.894,0.77664,28.005,46.939,62.306,-22.319,20.855,9.5653,12.877,15.702,0.65688
-66.182,12.447,38.891,-8.8915,-89.964,53.894,0.77664,28.005,46.939,62.306,-22.319,20.855,9.5653,12.877,15.702,0.65688
-66.182,12.447,38.891,-8.8915,-89.964,53.894,0.77664,28.005,46.939,62.306,-22.319,20.855,9.5653,12.877,15.702,0.65688
-66.435,12.314,38.475,-8.9847,-90.067,53.635,0.23089,27.962,47.143,62.668,-22.844,20.784,8.8575,13.17,15.245,0.72885
-66.435,12.314,38.475,-8.9847,-90.067,53.635,0.23089,27.962,47.143,62.668,-22.844,20.784,8.8575,13.17,15.245,0.72885
-66.562,12.246,38.267,-9.0335,-90.118,53.505,-0.04254,27.94,47.241,62.843,-23.108,20.746,8.5025,13.316,15.015,0.76435
-66.562,12.246,38.267,-9.0335,-90.118,53.505,-0.04254,27.94,47.241,62.843,-23.108,20.746,8.5025,13.316,15.015,0.76435
-66.69,12.178,38.059,-9.0837,-90.169,53.373,-0.31633,27.916,47.335,63.013,-23.372,20.708,8.1467,13.461,14.783,0.79954
-66.69,12.178,38.059,-9.0837,-90.169,53.373,-0.31633,27.916,47.335,63.013,-23.372,20.708,8.1467,13.461,14.783,0.79954
-66.69,12.178,38.059,-9.0837,-90.169,53.373,-0.31633,27.916,47.335,63.013,-23.372,20.708,8.1467,13.461,14.783,0.79954
-66.818,12.109,37.85,-9.1353,-90.22,53.241,-0.59047,27.892,47.426,63.178,-23.637,20.668,7.7902,13.606,14.55,0.83442
-66.818,12.109,37.85,-9.1353,-90.22,53.241,-0.59047,27.892,47.426,63.178,-23.637,20.668,7.7902,13.606,14.55,0.83442
-66.946,12.039,37.642,-9.1884,-90.272,53.108,-0.86496,27.866,47.514,63.339,-23.902,20.627,7.4329,13.75,14.316,0.86901
-67.075,11.969,37.434,-9.243,-90.323,52.974,-1.1398,27.84,47.599,63.495,-24.168,20.585,7.075,13.894,14.08,0.90332
-67.075,11.969,37.434,-9.243,-90.323,52.974,-1.1398,27.84,47.599,63.495,-24.168,20.585,7.075,13.894,14.08,0.90332
-67.204,11.898,37.226,-9.299,-90.375,52.839,-1.415,27.813,47.68,63.647,-24.434,20.542,6.7164,14.038,13.843,0.93734
-67.204,11.898,37.226,-9.299,-90.375,52.839,-1.415,27.813,47.68,63.647,-24.434,20.542,6.7164,14.038,13.843,0.93734
-67.334,11.826,37.018,-9.3565,-90.426,52.703,-1.6905,27.785,47.758,63.794,-24.701,20.497,6.3572,14.181,13.605,0.97108
-67.334,11.826,37.018,-9.3565,-90.426,52.703,-1.6905,27.785,47.758,63.794,-24.701,20.497,6.3572,14.181,13.605,0.97108
-67.334,11.826,37.018,-9.3565,-90.426,52.703,-1.6905,27.785,47.758,63.794,-24.701,20.497,6.3572,14.181,13.605,0.97108
-67.464,11.754,36.81,-9.4155,-90.478,52.567,-1.9663,27.756,47.833,63.936,-24.969,20.452,5.9974,14.324,13.366,1.0046
-67.464,11.754,36.81,-9.4155,-90.478,52.567,-1.9663,27.756,47.833,63.936,-24.969,20.452,5.9974,14.324,13.366,1.0046
-67.594,11.682,36.602,-9.476,-90.529,52.43,-2.2424,27.726,47.905,64.073,-25.237,20.405,5.637,14.466,13.125,1.0378
-67.594,11.682,36.602,-9.476,-90.529,52.43,-2.2424,27.726,47.905,64.073,-25.237,20.405,5.637,14.466,13.125,1.0378
-67.594,11.682,36.602,-9.476,-90.529,52.43,-2.2424,27.726,47.905,64.073,-25.237,20.405,5.637,14.466,13.125,1.0378
-67.856,11.534,36.186,-9.6014,-90.633,52.153,-2.7956,27.664,48.038,64.333,-25.775,20.307,4.9144,14.75,12.639,1.1035
-67.856,11.534,36.186,-9.6014,-90.633,52.153,-2.7956,27.664,48.038,64.333,-25.775,20.307,4.9144,14.75,12.639,1.1035
-67.988,11.459,35.978,-9.6664,-90.685,52.013,-3.0727,27.632,48.1,64.456,-26.044,20.256,4.5523,14.891,12.395,1.1359
-67.988,11.459,35.978,-9.6664,-90.685,52.013,-3.0727,27.632,48.1,64.456,-26.044,20.256,4.5523,14.891,12.395,1.1359
-67.988,11.459,35.978,-9.6664,-90.685,52.013,-3.0727,27.632,48.1,64.456,-26.044,20.256,4.5523,14.891,12.395,1.1359
-68.119,11.384,35.771,-9.733,-90.737,51.872,-3.35,27.599,48.158,64.574,-26.314,20.204,4.1897,15.032,12.149,1.1682
-68.119,11.384,35.771,-9.733,-90.737,51.872,-3.35,27.599,48.158,64.574,-26.314,20.204,4.1897,15.032,12.149,1.1682
-68.119,11.384,35.771,-9.733,-90.737,51.872,-3.35,27.599,48.158,64.574,-26.314,20.204,4.1897,15.032,12.149,1.1682
-68.384,11.232,35.356,-9.8706,-90.841,51.589,-3.9056,27.53,48.265,64.796,-26.856,20.096,3.463,15.313,11.653,1.232
-68.517,11.155,35.148,-9.9417,-90.893,51.446,-4.1837,27.495,48.313,64.899,-27.127,20.041,3.099,15.452,11.403,1.2636
-68.517,11.155,35.148,-9.9417,-90.893,51.446,-4.1837,27.495,48.313,64.899,-27.127,20.041,3.099,15.452,11.403,1.2636
-68.517,11.155,35.148,-9.9417,-90.893,51.446,-4.1837,27.495,48.313,64.899,-27.127,20.041,3.099,15.452,11.403,1.2636
-68.651,11.077,34.941,-10.014,-90.945,51.302,-4.4622,27.458,48.358,64.998,-27.399,19.983,2.7345,15.592,11.153,1.295
-68.651,11.077,34.941,-10.014,-90.945,51.302,-4.4622,27.458,48.358,64.998,-27.399,19.983,2.7345,15.592,11.153,1.295
-68.785,10.999,34.734,-10.089,-90.997,51.157,-4.7409,27.421,48.4,65.091,-27.671,19.925,2.3696,15.731,10.9,1.3262
-68.785,10.999,34.734,-10.089,-90.997,51.157,-4.7409,27.421,48.4,65.091,-27.671,19.925,2.3696,15.731,10.9,1.3262
-68.785,10.999,34.734,-10.089,-90.997,51.157,-4.7409,27.421,48.4,65.091,-27.671,19.925,2.3696,15.731,10.9,1.3262
-68.919,10.92,34.527,-10.164,-91.049,51.012,-5.0198,27.382,48.438,65.18,-27.944,19.865,2.0044,15.869,10.647,1.3572
-69.053,10.841,34.32,-10.242,-91.101,50.865,-5.299,27.343,48.473,65.264,-28.216,19.805,1.6387,16.007,10.393,1.3881
-69.053,10.841,34.32,-10.242,-91.101,50.865,-5.299,27.343,48.473,65.264,-28.216,19.805,1.6387,16.007,10.393,1.3881
-69.188,10.761,34.113,-10.321,-91.154,50.718,-5.5785,27.303,48.505,65.342,-28.49,19.742,1.2727,16.145,10.137,1.4187
-69.188,10.761,34.113,-10.321,-91.154,50.718,-5.5785,27.303,48.505,65.342,-28.49,19.742,1.2727,16.145,10.137,1.4187
-69.323,10.68,33.907,-10.401,-91.206,50.57,-5.8582,27.262,48.533,65.416,-28.763,19.679,0.90645,16.283,9.8801,1.4492
-69.323,10.68,33.907,-10.401,-91.206,50.57,-5.8582,27.262,48.533,65.416,-28.763,19.679,0.90645,16.283,9.8801,1.4492
-69.458,10.6,33.701,-10.484,-91.258,50.421,-6.1381,27.221,48.558,65.484,-29.037,19.614,0.53984,16.42,9.622,1.4795
-69.458,10.6,33.701,-10.484,-91.258,50.421,-6.1381,27.221,48.558,65.484,-29.037,19.614,0.53984,16.42,9.622,1.4795
-69.594,10.518,33.494,-10.567,-91.311,50.271,-6.4182,27.178,48.579,65.548,-29.311,19.548,0.17295,16.557,9.3627,1.5097
-69.594,10.518,33.494,-10.567,-91.311,50.271,-6.4182,27.178,48.579,65.548,-29.311,19.548,0.17295,16.557,9.3627,1.5097
-69.729,10.436,33.288,-10.653,-91.363,50.121,-6.6985,27.135,48.597,65.606,-29.585,19.48,-0.1942,16.693,9.1023,1.5397
-69.729,10.436,33.288,-10.653,-91.363,50.121,-6.6985,27.135,48.597,65.606,-29.585,19.48,-0.1942,16.693,9.1023,1.5397
-69.866,10.353,33.083,-10.74,-91.416,49.97,-6.9791,27.09,48.612,65.66,-29.86,19.412,-0.5616,16.829,8.8408,1.5696
-69.866,10.353,33.083,-10.74,-91.416,49.97,-6.9791,27.09,48.612,65.66,-29.86,19.412,-0.5616,16.829,8.8408,1.5696
-70.002,10.27,32.877,-10.828,-91.469,49.817,-7.2598,27.045,48.623,65.708,-30.135,19.341,-0.92921,16.965,8.5781,1.5993
-70.002,10.27,32.877,-10.828,-91.469,49.817,-7.2598,27.045,48.623,65.708,-30.135,19.341,-0.92921,16.965,8.5781,1.5993
-70.139,10.187,32.672,-10.919,-91.521,49.664,-7.5408,26.999,48.631,65.751,-30.41,19.27,-1.297,17.101,8.3142,1.6289
-70.139,10.187,32.672,-10.919,-91.521,49.664,-7.5408,26.999,48.631,65.751,-30.41,19.27,-1.297,17.101,8.3142,1.6289
-70.276,10.103,32.467,-11.011,-91.574,49.511,-7.8219,26.952,48.636,65.789,-30.686,19.197,-1.665,17.236,8.0492,1.6584
-70.276,10.103,32.467,-11.011,-91.574,49.511,-7.8219,26.952,48.636,65.789,-30.686,19.197,-1.665,17.236,8.0492,1.6584
-70.413,10.018,32.262,-11.104,-91.627,49.356,-8.1032,26.904,48.637,65.823,-30.961,19.123,-2.0332,17.371,7.7831,1.6878
-70.413,10.018,32.262,-11.104,-91.627,49.356,-8.1032,26.904,48.637,65.823,-30.961,19.123,-2.0332,17.371,7.7831,1.6878
-70.55,9.9332,32.058,-11.199,-91.68,49.2,-8.3847,26.856,48.634,65.851,-31.237,19.048,-2.4015,17.505,7.5159,1.7171
-70.55,9.9332,32.058,-11.199,-91.68,49.2,-8.3847,26.856,48.634,65.851,-31.237,19.048,-2.4015,17.505,7.5159,1.7171
-70.688,9.8477,31.853,-11.296,-91.733,49.044,-8.6664,26.806,48.629,65.873,-31.513,18.971,-2.7699,17.64,7.2476,1.7462
-70.688,9.8477,31.853,-11.296,-91.733,49.044,-8.6664,26.806,48.629,65.873,-31.513,18.971,-2.7699,17.64,7.2476,1.7462
-70.688,9.8477,31.853,-11.296,-91.733,49.044,-8.6664,26.806,48.629,65.873,-31.513,18.971,-2.7699,17.64,7.2476,1.7462
-70.826,9.7617,31.649,-11.395,-91.786,48.887,-8.9482,26.756,48.619,65.891,-31.789,18.893,-3.1384,17.774,6.9782,1.7753
-70.826,9.7617,31.649,-11.395,-91.786,48.887,-8.9482,26.756,48.619,65.891,-31.789,18.893,-3.1384,17.774,6.9782,1.7753
-70.826,9.7617,31.649,-11.395,-91.786,48.887,-8.9482,26.756,48.619,65.891,-31.789,18.893,-3.1384,17.774,6.9782,1.7753
-71.102,9.5884,31.242,-11.597,-91.891,48.57,-9.5123,26.653,48.591,65.912,-32.341,18.732,-3.8756,18.041,6.436,1.8332
-71.102,9.5884,31.242,-11.597,-91.891,48.57,-9.5123,26.653,48.591,65.912,-32.341,18.732,-3.8756,18.041,6.436,1.8332
-71.102,9.5884,31.242,-11.597,-91.891,48.57,-9.5123,26.653,48.591,65.912,-32.341,18.732,-3.8756,18.041,6.436,1.8332
-71.241,9.501,31.039,-11.701,-91.944,48.411,-9.7946,26.6,48.571,65.914,-32.618,18.65,-4.2443,18.174,6.1634,1.862
-71.379,9.4132,30.836,-11.806,-91.998,48.25,-10.077,26.546,48.548,65.911,-32.894,18.566,-4.613,18.306,5.8896,1.8907
-71.379,9.4132,30.836,-11.806,-91.998,48.25,-10.077,26.546,48.548,65.911,-32.894,18.566,-4.613,18.306,5.8896,1.8907
-71.518,9.325,30.634,-11.914,-92.051,48.089,-10.36,26.491,48.521,65.904,-33.171,18.481,-4.9816,18.439,5.6148,1.9194
-71.518,9.325,30.634,-11.914,-92.051,48.089,-10.36,26.491,48.521,65.904,-33.171,18.481,-4.9816,18.439,5.6148,1.9194
-71.518,9.325,30.634,-11.914,-92.051,48.089,-10.36,26.491,48.521,65.904,-33.171,18.481,-4.9816,18.439,5.6148,1.9194
-71.657,9.2363,30.431,-12.022,-92.104,47.927,-10.642,26.436,48.492,65.891,-33.447,18.395,-5.3503,18.571,5.339,1.948
-71.796,9.1473,30.23,-12.133,-92.157,47.764,-10.925,26.379,48.458,65.873,-33.724,18.307,-5.7189,18.703,5.0621,1.9766
-71.796,9.1473,30.23,-12.133,-92.157,47.764,-10.925,26.379,48.458,65.873,-33.724,18.307,-5.7189,18.703,5.0621,1.9766
-71.936,9.0578,30.028,-12.245,-92.21,47.6,-11.208,26.322,48.421,65.85,-34,18.218,-6.0874,18.835,4.7841,2.0051
-71.936,9.0578,30.028,-12.245,-92.21,47.6,-11.208,26.322,48.421,65.85,-34,18.218,-6.0874,18.835,4.7841,2.0051
-72.075,8.9678,29.827,-12.359,-92.263,47.436,-11.491,26.264,48.381,65.822,-34.277,18.127,-6.4559,18.966,4.5051,2.0336
-72.075,8.9678,29.827,-12.359,-92.263,47.436,-11.491,26.264,48.381,65.822,-34.277,18.127,-6.4559,18.966,4.5051,2.0336
-72.075,8.9678,29.827,-12.359,-92.263,47.436,-11.491,26.264,48.381,65.822,-34.277,18.127,-6.4559,18.966,4.5051,2.0336
-72.215,8.8775,29.626,-12.475,-92.317,47.27,-11.774,26.205,48.337,65.789,-34.553,18.035,-6.8242,19.097,4.2252,2.062
-72.215,8.8775,29.626,-12.475,-92.317,47.27,-11.774,26.205,48.337,65.789,-34.553,18.035,-6.8242,19.097,4.2252,2.062
-72.215,8.8775,29.626,-12.475,-92.317,47.27,-11.774,26.205,48.337,65.789,-34.553,18.035,-6.8242,19.097,4.2252,2.062
-72.494,8.6958,29.226,-12.712,-92.423,46.937,-12.34,26.084,48.239,65.707,-35.106,17.847,-7.5605,19.358,3.6621,2.1188
-72.494,8.6958,29.226,-12.712,-92.423,46.937,-12.34,26.084,48.239,65.707,-35.106,17.847,-7.5605,19.358,3.6621,2.1188
-72.634,8.6043,29.026,-12.834,-92.476,46.769,-12.624,26.023,48.185,65.659,-35.383,17.751,-7.9284,19.489,3.3791,2.1472
-72.634,8.6043,29.026,-12.834,-92.476,46.769,-12.624,26.023,48.185,65.659,-35.383,17.751,-7.9284,19.489,3.3791,2.1472
-72.774,8.5125,28.827,-12.957,-92.53,46.601,-12.907,25.96,48.127,65.605,-35.659,17.653,-8.2961,19.619,3.0951,2.1755
-72.774,8.5125,28.827,-12.957,-92.53,46.601,-12.907,25.96,48.127,65.605,-35.659,17.653,-8.2961,19.619,3.0951,2.1755
-72.914,8.4203,28.628,-13.081,-92.583,46.431,-13.191,25.897,48.066,65.547,-35.935,17.554,-8.6636,19.748,2.8101,2.2039
-72.914,8.4203,28.628,-13.081,-92.583,46.431,-13.191,25.897,48.066,65.547,-35.935,17.554,-8.6636,19.748,2.8101,2.2039
-72.914,8.4203,28.628,-13.081,-92.583,46.431,-13.191,25.897,48.066,65.547,-35.935,17.554,-8.6636,19.748,2.8101,2.2039
-73.054,8.3277,28.43,-13.208,-92.636,46.261,-13.474,25.833,48.002,65.483,-36.211,17.454,-9.0309,19.878,2.5242,2.2322
-73.195,8.2348,28.232,-13.336,-92.69,46.09,-13.758,25.768,47.934,65.415,-36.487,17.352,-9.3979,20.007,2.2372,2.2606
-73.195,8.2348,28.232,-13.336,-92.69,46.09,-13.758,25.768,47.934,65.415,-36.487,17.352,-9.3979,20.007,2.2372,2.2606
-73.335,8.1415,28.035,-13.467,-92.743,45.918,-14.042,25.702,47.862,65.341,-36.763,17.248,-9.7647,20.136,1.9493,2.2889
-73.335,8.1415,28.035,-13.467,-92.743,45.918,-14.042,25.702,47.862,65.341,-36.763,17.248,-9.7647,20.136,1.9493,2.2889
-73.335,8.1415,28.035,-13.467,-92.743,45.918,-14.042,25.702,47.862,65.341,-36.763,17.248,-9.7647,20.136,1.9493,2.2889
-73.475,8.048,27.837,-13.599,-92.796,45.745,-14.325,25.635,47.787,65.263,-37.038,17.143,-10.131,20.265,1.6605,2.3173
-73.616,7.954,27.641,-13.732,-92.849,45.572,-14.609,25.567,47.709,65.179,-37.314,17.037,-10.497,20.393,1.3707,2.3457
-73.616,7.954,27.641,-13.732,-92.849,45.572,-14.609,25.567,47.709,65.179,-37.314,17.037,-10.497,20.393,1.3707,2.3457
-73.756,7.8598,27.445,-13.868,-92.903,45.397,-14.893,25.499,47.627,65.091,-37.589,16.929,-10.863,20.521,1.08,2.3741
-73.756,7.8598,27.445,-13.868,-92.903,45.397,-14.893,25.499,47.627,65.091,-37.589,16.929,-10.863,20.521,1.08,2.3741
-73.896,7.7652,27.249,-14.006,-92.956,45.222,-15.177,25.429,47.541,64.997,-37.864,16.82,-11.229,20.649,0.7883,2.4025
-73.896,7.7652,27.249,-14.006,-92.956,45.222,-15.177,25.429,47.541,64.997,-37.864,16.82,-11.229,20.649,0.7883,2.4025
-74.037,7.6704,27.054,-14.145,-93.009,45.046,-15.46,25.359,47.452,64.899,-38.138,16.709,-11.594,20.777,0.49571,2.4309
-74.037,7.6704,27.054,-14.145,-93.009,45.046,-15.46,25.359,47.452,64.899,-38.138,16.709,-11.594,20.777,0.49571,2.4309
-74.177,7.5752,26.859,-14.287,-93.063,44.87,-15.744,25.288,47.36,64.796,-38.413,16.597,-11.959,20.905,0.20219,2.4594
-74.177,7.5752,26.859,-14.287,-93.063,44.87,-15.744,25.288,47.36,64.796,-38.413,16.597,-11.959,20.905,0.20219,2.4594
-74.318,7.4798,26.665,-14.43,-93.116,44.692,-16.028,25.216,47.264,64.688,-38.687,16.483,-12.323,21.032,-0.092232,2.488
-74.318,7.4798,26.665,-14.43,-93.116,44.692,-16.028,25.216,47.264,64.688,-38.687,16.483,-12.323,21.032,-0.092232,2.488
-74.458,7.384,26.472,-14.575,-93.169,44.514,-16.312,25.143,47.164,64.575,-38.961,16.368,-12.687,21.159,-0.38756,2.5165
-74.458,7.384,26.472,-14.575,-93.169,44.514,-16.312,25.143,47.164,64.575,-38.961,16.368,-12.687,21.159,-0.38756,2.5165
-74.598,7.288,26.279,-14.722,-93.222,44.335,-16.596,25.069,47.061,64.457,-39.234,16.251,-13.05,21.286,-0.68379,2.5452
-74.598,7.288,26.279,-14.722,-93.222,44.335,-16.596,25.069,47.061,64.457,-39.234,16.251,-13.05,21.286,-0.68379,2.5452
-74.739,7.1918,26.086,-14.871,-93.275,44.155,-16.88,24.994,46.955,64.335,-39.507,16.133,-13.414,21.413,-0.98091,2.5739
-74.879,7.0952,25.894,-15.022,-93.329,43.974,-17.163,24.918,46.845,64.208,-39.78,16.013,-13.776,21.539,-1.2789,2.6026
-74.879,7.0952,25.894,-15.022,-93.329,43.974,-17.163,24.918,46.845,64.208,-39.78,16.013,-13.776,21.539,-1.2789,2.6026
-74.879,7.0952,25.894,-15.022,-93.329,43.974,-17.163,24.918,46.845,64.208,-39.78,16.013,-13.776,21.539,-1.2789,2.6026
-75.019,6.9984,25.703,-15.175,-93.382,43.792,-17.447,24.842,46.732,64.076,-40.052,15.892,-14.138,21.665,-1.5778,2.6314
-75.019,6.9984,25.703,-15.175,-93.382,43.792,-17.447,24.842,46.732,64.076,-40.052,15.892,-14.138,21.665,-1.5778,2.6314
-75.159,6.9014,25.512,-15.329,-93.435,43.61,-17.731,24.765,46.615,63.939,-40.324,15.77,-14.5,21.791,-1.8776,2.6603
-75.159,6.9014,25.512,-15.329,-93.435,43.61,-17.731,24.765,46.615,63.939,-40.324,15.77,-14.5,21.791,-1.8776,2.6603
-75.299,6.8041,25.322,-15.486,-93.488,43.427,-18.015,24.686,46.495,63.798,-40.596,15.645,-14.861,21.917,-2.1782,2.6892
-75.299,6.8041,25.322,-15.486,-93.488,43.427,-18.015,24.686,46.495,63.798,-40.596,15.645,-14.861,21.917,-2.1782,2.6892
-75.439,6.7065,25.132,-15.644,-93.541,43.243,-18.298,24.607,46.371,63.652,-40.867,15.52,-15.221,22.042,-2.4797,2.7182
-75.439,6.7065,25.132,-15.644,-93.541,43.243,-18.298,24.607,46.371,63.652,-40.867,15.52,-15.221,22.042,-2.4797,2.7182
-75.439,6.7065,25.132,-15.644,-93.541,43.243,-18.298,24.607,46.371,63.652,-40.867,15.52,-15.221,22.042,-2.4797,2.7182
-75.578,6.6088,24.943,-15.805,-93.594,43.058,-18.582,24.527,46.243,63.501,-41.137,15.392,-15.581,22.168,-2.782,2.7473
-75.718,6.5108,24.754,-15.967,-93.647,42.873,-18.866,24.446,46.113,63.345,-41.408,15.264,-15.941,22.293,-3.0852,2.7765
-75.718,6.5108,24.754,-15.967,-93.647,42.873,-18.866,24.446,46.113,63.345,-41.408,15.264,-15.941,22.293,-3.0852,2.7765
-75.858,6.4126,24.567,-16.132,-93.699,42.687,-19.149,24.364,45.979,63.186,-41.677,15.133,-16.299,22.418,-3.3892,2.8057
-75.858,6.4126,24.567,-16.132,-93.699,42.687,-19.149,24.364,45.979,63.186,-41.677,15.133,-16.299,22.418,-3.3892,2.8057
-75.997,6.3142,24.379,-16.298,-93.752,42.5,-19.433,24.281,45.841,63.021,-41.946,15.002,-16.658,22.542,-3.694,2.8351
-75.997,6.3142,24.379,-16.298,-93.752,42.5,-19.433,24.281,45.841,63.021,-41.946,15.002,-16.658,22.542,-3.694,2.8351
-76.136,6.2157,24.193,-16.467,-93.805,42.312,-19.716,24.198,45.7,62.852,-42.215,14.868,-17.015,22.667,-3.9997,2.8645
-76.136,6.2157,24.193,-16.467,-93.805,42.312,-19.716,24.198,45.7,62.852,-42.215,14.868,-17.015,22.667,-3.9997,2.8645
-76.275,6.1169,24.007,-16.637,-93.858,42.123,-20,24.113,45.555,62.679,-42.483,14.733,-17.372,22.791,-4.3062,2.8941
-76.275,6.1169,24.007,-16.637,-93.858,42.123,-20,24.113,45.555,62.679,-42.483,14.733,-17.372,22.791,-4.3062,2.8941
-76.414,6.0179,23.821,-16.81,-93.91,41.934,-20.283,24.028,45.407,62.501,-42.751,14.597,-17.728,22.915,-4.6135,2.9237
-76.414,6.0179,23.821,-16.81,-93.91,41.934,-20.283,24.028,45.407,62.501,-42.751,14.597,-17.728,22.915,-4.6135,2.9237
-76.552,5.9188,23.637,-16.984,-93.963,41.744,-20.566,23.941,45.256,62.318,-43.018,14.459,-18.084,23.039,-4.9216,2.9534
-76.552,5.9188,23.637,-16.984,-93.963,41.744,-20.566,23.941,45.256,62.318,-43.018,14.459,-18.084,23.039,-4.9216,2.9534
-76.552,5.9188,23.637,-16.984,-93.963,41.744,-20.566,23.941,45.256,62.318,-43.018,14.459,-18.084,23.039,-4.9216,2.9534
-76.691,5.8195,23.453,-17.16,-94.015,41.553,-20.849,23.854,45.101,62.132,-43.284,14.319,-18.439,23.162,-5.2306,2.9833
-76.691,5.8195,23.453,-17.16,-94.015,41.553,-20.849,23.854,45.101,62.132,-43.284,14.319,-18.439,23.162,-5.2306,2.9833
-76.691,5.8195,23.453,-17.16,-94.015,41.553,-20.849,23.854,45.101,62.132,-43.284,14.319,-18.439,23.162,-5.2306,2.9833
-76.967,5.6204,23.087,-17.519,-94.119,41.169,-21.415,23.677,44.78,61.745,-43.815,14.035,-19.146,23.409,-5.8508,3.0433
-76.967,5.6204,23.087,-17.519,-94.119,41.169,-21.415,23.677,44.78,61.745,-43.815,14.035,-19.146,23.409,-5.8508,3.0433
-77.104,5.5206,22.905,-17.702,-94.172,40.975,-21.698,23.587,44.615,61.546,-44.079,13.891,-19.499,23.532,-6.1621,3.0735
-77.104,5.5206,22.905,-17.702,-94.172,40.975,-21.698,23.587,44.615,61.546,-44.079,13.891,-19.499,23.532,-6.1621,3.0735
-77.242,5.4207,22.724,-17.886,-94.224,40.781,-21.981,23.496,44.446,61.342,-44.343,13.745,-19.851,23.655,-6.4742,3.1037
-77.242,5.4207,22.724,-17.886,-94.224,40.781,-21.981,23.496,44.446,61.342,-44.343,13.745,-19.851,23.655,-6.4742,3.1037
-77.242,5.4207,22.724,-17.886,-94.224,40.781,-21.981,23.496,44.446,61.342,-44.343,13.745,-19.851,23.655,-6.4742,3.1037
-77.379,5.3207,22.543,-18.073,-94.276,40.587,-22.264,23.404,44.274,61.134,-44.606,13.597,-20.202,23.777,-6.787,3.1342
-77.516,5.2205,22.364,-18.262,-94.327,40.391,-22.546,23.311,44.099,60.921,-44.869,13.448,-20.552,23.9,-7.1006,3.1647
-77.516,5.2205,22.364,-18.262,-94.327,40.391,-22.546,23.311,44.099,60.921,-44.869,13.448,-20.552,23.9,-7.1006,3.1647
-77.653,5.1202,22.185,-18.452,-94.379,40.195,-22.828,23.218,43.92,60.705,-45.13,13.297,-20.901,24.022,-7.415,3.1953
-77.653,5.1202,22.185,-18.452,-94.379,40.195,-22.828,23.218,43.92,60.705,-45.13,13.297,-20.901,24.022,-7.415,3.1953
-77.789,5.0198,22.006,-18.645,-94.431,39.998,-23.111,23.123,43.737,60.485,-45.391,13.145,-21.25,24.144,-7.7302,3.2261
-77.789,5.0198,22.006,-18.645,-94.431,39.998,-23.111,23.123,43.737,60.485,-45.391,13.145,-21.25,24.144,-7.7302,3.2261
-77.789,5.0198,22.006,-18.645,-94.431,39.998,-23.111,23.123,43.737,60.485,-45.391,13.145,-21.25,24.144,-7.7302,3.2261
-77.925,4.9194,21.829,-18.84,-94.482,39.8,-23.393,23.027,43.551,60.26,-45.652,12.991,-21.598,24.266,-8.046,3.257
-77.925,4.9194,21.829,-18.84,-94.482,39.8,-23.393,23.027,43.551,60.26,-45.652,12.991,-21.598,24.266,-8.046,3.257
-78.061,4.8188,21.652,-19.037,-94.534,39.601,-23.675,22.931,43.362,60.031,-45.911,12.836,-21.945,24.388,-8.3627,3.2881
-78.061,4.8188,21.652,-19.037,-94.534,39.601,-23.675,22.931,43.362,60.031,-45.911,12.836,-21.945,24.388,-8.3627,3.2881
-78.196,4.7181,21.476,-19.236,-94.585,39.402,-23.957,22.834,43.17,59.799,-46.17,12.678,-22.291,24.509,-8.6801,3.3193
-78.196,4.7181,21.476,-19.236,-94.585,39.402,-23.957,22.834,43.17,59.799,-46.17,12.678,-22.291,24.509,-8.6801,3.3193
-78.331,4.6173,21.301,-19.438,-94.636,39.202,-24.239,22.735,42.974,59.563,-46.427,12.52,-22.636,24.63,-8.9982,3.3506
-78.466,4.5165,21.127,-19.641,-94.687,39.001,-24.52,22.636,42.775,59.322,-46.684,12.359,-22.98,24.751,-9.317,3.382
-78.466,4.5165,21.127,-19.641,-94.687,39.001,-24.52,22.636,42.775,59.322,-46.684,12.359,-22.98,24.751,-9.317,3.382
-78.6,4.4155,20.953,-19.846,-94.738,38.8,-24.802,22.536,42.572,59.078,-46.941,12.197,-23.324,24.872,-9.6366,3.4136
-78.6,4.4155,20.953,-19.846,-94.738,38.8,-24.802,22.536,42.572,59.078,-46.941,12.197,-23.324,24.872,-9.6366,3.4136
-78.6,4.4155,20.953,-19.846,-94.738,38.8,-24.802,22.536,42.572,59.078,-46.941,12.197,-23.324,24.872,-9.6366,3.4136
-78.734,4.3146,20.78,-20.054,-94.789,38.597,-25.083,22.435,42.366,58.83,-47.196,12.033,-23.666,24.993,-9.9569,3.4453
-78.734,4.3146,20.78,-20.054,-94.789,38.597,-25.083,22.435,42.366,58.83,-47.196,12.033,-23.666,24.993,-9.9569,3.4453
-78.734,4.3146,20.78,-20.054,-94.789,38.597,-25.083,22.435,42.366,58.83,-47.196,12.033,-23.666,24.993,-9.9569,3.4453
-79,4.1125,20.437,-20.475,-94.889,38.191,-25.645,22.23,41.944,58.323,-47.704,11.701,-24.348,25.233,-10.6,3.5092
-79,4.1125,20.437,-20.475,-94.889,38.191,-25.645,22.23,41.944,58.323,-47.704,11.701,-24.348,25.233,-10.6,3.5092
-79,4.1125,20.437,-20.475,-94.889,38.191,-25.645,22.23,41.944,58.323,-47.704,11.701,-24.348,25.233,-10.6,3.5092
-79.133,4.0113,20.267,-20.689,-94.94,37.986,-25.926,22.126,41.728,58.064,-47.956,11.532,-24.688,25.353,-10.922,3.5414
-79.265,3.9102,20.098,-20.906,-94.99,37.781,-26.206,22.021,41.509,57.801,-48.208,11.362,-25.026,25.473,-11.245,3.5736
-79.265,3.9102,20.098,-20.906,-94.99,37.781,-26.206,22.021,41.509,57.801,-48.208,11.362,-25.026,25.473,-11.245,3.5736
-79.397,3.809,19.929,-21.124,-95.04,37.575,-26.487,21.915,41.286,57.535,-48.459,11.19,-25.364,25.593,-11.569,3.6061
-79.397,3.809,19.929,-21.124,-95.04,37.575,-26.487,21.915,41.286,57.535,-48.459,11.19,-25.364,25.593,-11.569,3.6061
-79.397,3.809,19.929,-21.124,-95.04,37.575,-26.487,21.915,41.286,57.535,-48.459,11.19,-25.364,25.593,-11.569,3.6061
-79.528,3.7078,19.761,-21.344,-95.089,37.368,-26.767,21.808,41.06,57.265,-48.708,11.017,-25.7,25.712,-11.893,3.6387
-79.528,3.7078,19.761,-21.344,-95.089,37.368,-26.767,21.808,41.06,57.265,-48.708,11.017,-25.7,25.712,-11.893,3.6387
-79.659,3.6066,19.595,-21.567,-95.139,37.161,-27.047,21.7,40.831,56.992,-48.957,10.841,-26.036,25.832,-12.219,3.6714
-79.659,3.6066,19.595,-21.567,-95.139,37.161,-27.047,21.7,40.831,56.992,-48.957,10.841,-26.036,25.832,-12.219,3.6714
-79.789,3.5053,19.429,-21.792,-95.188,36.953,-27.327,21.592,40.599,56.715,-49.205,10.664,-26.37,25.951,-12.544,3.7043
-79.789,3.5053,19.429,-21.792,-95.188,36.953,-27.327,21.592,40.599,56.715,-49.205,10.664,-26.37,25.951,-12.544,3.7043
-79.919,3.4041,19.264,-22.019,-95.238,36.744,-27.606,21.482,40.363,56.434,-49.452,10.486,-26.704,26.069,-12.871,3.7374
-79.919,3.4041,19.264,-22.019,-95.238,36.744,-27.606,21.482,40.363,56.434,-49.452,10.486,-26.704,26.069,-12.871,3.7374
-79.919,3.4041,19.264,-22.019,-95.238,36.744,-27.606,21.482,40.363,56.434,-49.452,10.486,-26.704,26.069,-12.871,3.7374
-80.177,3.2016,18.937,-22.48,-95.336,36.324,-28.165,21.26,39.883,55.864,-49.942,10.124,-27.367,26.307,-13.526,3.8039
-80.177,3.2016,18.937,-22.48,-95.336,36.324,-28.165,21.26,39.883,55.864,-49.942,10.124,-27.367,26.307,-13.526,3.8039
-80.177,3.2016,18.937,-22.48,-95.336,36.324,-28.165,21.26,39.883,55.864,-49.942,10.124,-27.367,26.307,-13.526,3.8039
-80.306,3.1004,18.774,-22.713,-95.384,36.113,-28.444,21.147,39.637,55.573,-50.185,9.94,-27.697,26.425,-13.855,3.8374
-80.434,2.9993,18.613,-22.949,-95.433,35.901,-28.723,21.034,39.389,55.28,-50.428,9.7546,-28.026,26.543,-14.184,3.871
-80.434,2.9993,18.613,-22.949,-95.433,35.901,-28.723,21.034,39.389,55.28,-50.428,9.7546,-28.026,26.543,-14.184,3.871
-80.434,2.9993,18.613,-22.949,-95.433,35.901,-28.723,21.034,39.389,55.28,-50.428,9.7546,-28.026,26.543,-14.184,3.871
-80.561,2.8981,18.453,-23.187,-95.481,35.689,-29.002,20.919,39.138,54.983,-50.669,9.5676,-28.354,26.661,-14.514,3.9048
-80.561,2.8981,18.453,-23.187,-95.481,35.689,-29.002,20.919,39.138,54.983,-50.669,9.5676,-28.354,26.661,-14.514,3.9048
-80.561,2.8981,18.453,-23.187,-95.481,35.689,-29.002,20.919,39.138,54.983,-50.669,9.5676,-28.354,26.661,-14.514,3.9048
-80.814,2.6959,18.135,-23.67,-95.577,35.262,-29.558,20.687,38.625,54.38,-51.148,9.1884,-29.007,26.895,-15.175,3.9729
-80.814,2.6959,18.135,-23.67,-95.577,35.262,-29.558,20.687,38.625,54.38,-51.148,9.1884,-29.007,26.895,-15.175,3.9729
-80.939,2.5949,17.977,-23.915,-95.624,35.047,-29.836,20.57,38.364,54.074,-51.386,8.9962,-29.331,27.013,-15.507,4.0071
-80.939,2.5949,17.977,-23.915,-95.624,35.047,-29.836,20.57,38.364,54.074,-51.386,8.9962,-29.331,27.013,-15.507,4.0071
-81.064,2.4939,17.821,-24.162,-95.672,34.832,-30.114,20.451,38.1,53.765,-51.623,8.8023,-29.655,27.13,-15.839,4.0415
-81.064,2.4939,17.821,-24.162,-95.672,34.832,-30.114,20.451,38.1,53.765,-51.623,8.8023,-29.655,27.13,-15.839,4.0415
-81.064,2.4939,17.821,-24.162,-95.672,34.832,-30.114,20.451,38.1,53.765,-51.623,8.8023,-29.655,27.13,-15.839,4.0415
-81.188,2.393,17.666,-24.412,-95.719,34.616,-30.391,20.332,37.833,53.453,-51.859,8.6067,-29.977,27.246,-16.172,4.0761
-81.188,2.393,17.666,-24.412,-95.719,34.616,-30.391,20.332,37.833,53.453,-51.859,8.6067,-29.977,27.246,-16.172,4.0761
-81.312,2.2922,17.511,-24.663,-95.766,34.4,-30.668,20.211,37.563,53.138,-52.093,8.4094,-30.298,27.363,-16.506,4.1108
-81.435,2.1914,17.358,-24.917,-95.812,34.182,-30.945,20.09,37.29,52.82,-52.326,8.2104,-30.618,27.479,-16.84,4.1456
-81.435,2.1914,17.358,-24.917,-95.812,34.182,-30.945,20.09,37.29,52.82,-52.326,8.2104,-30.618,27.479,-16.84,4.1456
-81.557,2.0907,17.205,-25.174,-95.859,33.964,-31.222,19.967,37.014,52.499,-52.558,8.0097,-30.936,27.595,-17.175,4.1806
-81.557,2.0907,17.205,-25.174,-95.859,33.964,-31.222,19.967,37.014,52.499,-52.558,8.0097,-30.936,27.595,-17.175,4.1806
-81.679,1.9901,17.054,-25.432,-95.905,33.746,-31.498,19.844,36.735,52.176,-52.788,7.8072,-31.254,27.711,-17.51,4.2158
-81.679,1.9901,17.054,-25.432,-95.905,33.746,-31.498,19.844,36.735,52.176,-52.788,7.8072,-31.254,27.711,-17.51,4.2158
-81.679,1.9901,17.054,-25.432,-95.905,33.746,-31.498,19.844,36.735,52.176,-52.788,7.8072,-31.254,27.711,-17.51,4.2158
-81.8,1.8896,16.903,-25.693,-95.951,33.526,-31.775,19.719,36.453,51.849,-53.018,7.603,-31.57,27.827,-17.846,4.2511
-81.8,1.8896,16.903,-25.693,-95.951,33.526,-31.775,19.719,36.453,51.849,-53.018,7.603,-31.57,27.827,-17.846,4.2511
-81.921,1.7891,16.754,-25.956,-95.997,33.306,-32.051,19.594,36.168,51.52,-53.246,7.397,-31.885,27.942,-18.183,4.2865
-82.04,1.6888,16.606,-26.221,-96.042,33.085,-32.326,19.467,35.88,51.188,-53.472,7.1894,-32.198,28.057,-18.52,4.3221
-82.04,1.6888,16.606,-26.221,-96.042,33.085,-32.326,19.467,35.88,51.188,-53.472,7.1894,-32.198,28.057,-18.52,4.3221
-82.159,1.5886,16.458,-26.489,-96.087,32.864,-32.602,19.34,35.589,50.854,-53.698,6.9799,-32.511,28.172,-18.858,4.3579
-82.159,1.5886,16.458,-26.489,-96.087,32.864,-32.602,19.34,35.589,50.854,-53.698,6.9799,-32.511,28.172,-18.858,4.3579
-82.278,1.4885,16.312,-26.759,-96.132,32.642,-32.877,19.211,35.296,50.517,-53.922,6.7688,-32.822,28.287,-19.196,4.3938
-82.278,1.4885,16.312,-26.759,-96.132,32.642,-32.877,19.211,35.296,50.517,-53.922,6.7688,-32.822,28.287,-19.196,4.3938
-82.395,1.3885,16.167,-27.032,-96.177,32.419,-33.151,19.082,34.999,50.177,-54.144,6.5559,-33.132,28.401,-19.535,4.4298
-82.395,1.3885,16.167,-27.032,-96.177,32.419,-33.151,19.082,34.999,50.177,-54.144,6.5559,-33.132,28.401,-19.535,4.4298
-82.512,1.2886,16.023,-27.306,-96.221,32.196,-33.426,18.951,34.7,49.835,-54.366,6.3412,-33.44,28.515,-19.875,4.466
-82.512,1.2886,16.023,-27.306,-96.221,32.196,-33.426,18.951,34.7,49.835,-54.366,6.3412,-33.44,28.515,-19.875,4.466
-82.628,1.1889,15.88,-27.583,-96.265,31.972,-33.7,18.82,34.398,49.491,-54.586,6.1248,-33.748,28.629,-20.215,4.5023
-82.628,1.1889,15.88,-27.583,-96.265,31.972,-33.7,18.82,34.398,49.491,-54.586,6.1248,-33.748,28.629,-20.215,4.5023
-82.743,1.0893,15.739,-27.863,-96.309,31.747,-33.974,18.687,34.093,49.144,-54.804,5.9066,-34.054,28.743,-20.556,4.5388
-82.858,0.98978,15.598,-28.144,-96.352,31.522,-34.248,18.553,33.785,48.795,-55.021,5.6867,-34.358,28.856,-20.897,4.5754
-82.858,0.98978,15.598,-28.144,-96.352,31.522,-34.248,18.553,33.785,48.795,-55.021,5.6867,-34.358,28.856,-20.897,4.5754
-82.858,0.98978,15.598,-28.144,-96.352,31.522,-34.248,18.553,33.785,48.795,-55.021,5.6867,-34.358,28.856,-20.897,4.5754
-82.972,0.89045,15.458,-28.428,-96.395,31.296,-34.521,18.419,33.475,48.443,-55.237,5.465,-34.662,28.969,-21.238,4.6121
-82.972,0.89045,15.458,-28.428,-96.395,31.296,-34.521,18.419,33.475,48.443,-55.237,5.465,-34.662,28.969,-21.238,4.6121
-82.972,0.89045,15.458,-28.428,-96.395,31.296,-34.521,18.419,33.475,48.443,-55.237,5.465,-34.662,28.969,-21.238,4.6121
-83.085,0.79126,15.32,-28.715,-96.438,31.069,-34.794,18.283,33.162,48.089,-55.451,5.2415,-34.964,29.082,-21.581,4.649
-83.197,0.69223,15.183,-29.004,-96.481,30.842,-35.067,18.146,32.847,47.733,-55.663,5.0163,-35.264,29.195,-21.923,4.686
-83.197,0.69223,15.183,-29.004,-96.481,30.842,-35.067,18.146,32.847,47.733,-55.663,5.0163,-35.264,29.195,-21.923,4.686
-83.308,0.59335,15.047,-29.295,-96.523,30.614,-35.339,18.008,32.528,47.374,-55.875,4.7894,-35.564,29.307,-22.267,4.7231
-83.308,0.59335,15.047,-29.295,-96.523,30.614,-35.339,18.008,32.528,47.374,-55.875,4.7894,-35.564,29.307,-22.267,4.7231
-83.419,0.49463,14.912,-29.588,-96.565,30.385,-35.611,17.869,32.207,47.014,-56.084,4.5606,-35.861,29.419,-22.611,4.7604
-83.419,0.49463,14.912,-29.588,-96.565,30.385,-35.611,17.869,32.207,47.014,-56.084,4.5606,-35.861,29.419,-22.611,4.7604
-83.419,0.49463,14.912,-29.588,-96.565,30.385,-35.611,17.869,32.207,47.014,-56.084,4.5606,-35.861,29.419,-22.611,4.7604
-83.528,0.39608,14.778,-29.884,-96.606,30.156,-35.883,17.73,31.884,46.651,-56.292,4.3301,-36.158,29.531,-22.955,4.7978
-83.528,0.39608,14.778,-29.884,-96.606,30.156,-35.883,17.73,31.884,46.651,-56.292,4.3301,-36.158,29.531,-22.955,4.7978
-83.637,0.2977,14.645,-30.183,-96.648,29.926,-36.155,17.589,31.558,46.286,-56.499,4.0978,-36.453,29.643,-23.3,4.8353
-83.745,0.19949,14.514,-30.483,-96.689,29.695,-36.426,17.447,31.23,45.919,-56.704,3.8637,-36.747,29.754,-23.645,4.8729
-83.745,0.19949,14.514,-30.483,-96.689,29.695,-36.426,17.447,31.23,45.919,-56.704,3.8637,-36.747,29.754,-23.645,4.8729
-83.852,0.10146,14.384,-30.787,-96.729,29.464,-36.696,17.303,30.899,45.55,-56.907,3.6279,-37.04,29.865,-23.991,4.9107
-83.852,0.10146,14.384,-30.787,-96.729,29.464,-36.696,17.303,30.899,45.55,-56.907,3.6279,-37.04,29.865,-23.991,4.9107
-83.959,0.0036155,14.255,-31.092,-96.769,29.232,-36.967,17.159,30.565,45.179,-57.109,3.3903,-37.331,29.976,-24.338,4.9486
-83.959,0.0036155,14.255,-31.092,-96.769,29.232,-36.967,17.159,30.565,45.179,-57.109,3.3903,-37.331,29.976,-24.338,4.9486
-84.064,-0.094043,14.127,-31.4,-96.809,29,-37.237,17.014,30.23,44.807,-57.309,3.1509,-37.62,30.086,-24.684,4.9866
-84.064,-0.094043,14.127,-31.4,-96.809,29,-37.237,17.014,30.23,44.807,-57.309,3.1509,-37.62,30.086,-24.684,4.9866
-84.169,-0.19151,14.001,-31.71,-96.849,28.767,-37.507,16.868,29.891,44.432,-57.508,2.9097,-37.908,30.196,-25.032,5.0247
-84.169,-0.19151,14.001,-31.71,-96.849,28.767,-37.507,16.868,29.891,44.432,-57.508,2.9097,-37.908,30.196,-25.032,5.0247
